time,I,II,III,AVR,AVL,AVF,V1,V2,V3,V4,V5,V6
0.0,-0.045,-0.05,-0.005,0.048,-0.02,-0.027,-0.08,-0.165,-0.105,-0.395,-0.21,0.01
0.002,-0.045,-0.05,-0.005,0.048,-0.02,-0.027,-0.08,-0.165,-0.105,-0.395,-0.21,0.01
0.004,-0.045,-0.05,-0.005,0.048,-0.02,-0.027,-0.08,-0.165,-0.105,-0.395,-0.21,0.01
0.006,-0.045,-0.05,-0.005,0.048,-0.02,-0.027,-0.08,-0.165,-0.105,-0.395,-0.21,0.01
0.008,-0.045,-0.05,-0.005,0.048,-0.02,-0.027,-0.08,-0.164,-0.105,-0.395,-0.21,0.01
0.01,-0.045,-0.05,-0.005,0.048,-0.02,-0.027,-0.08,-0.165,-0.105,-0.395,-0.21,0.01
0.012,-0.045,-0.05,-0.005,0.048,-0.02,-0.027,-0.076,-0.177,-0.105,-0.395,-0.21,0.014
0.014,-0.044,-0.05,-0.006,0.048,-0.019,-0.027,-0.074,-0.186,-0.105,-0.395,-0.21,0.016
0.016,-0.047,-0.05,-0.003,0.049,-0.022,-0.026,-0.076,-0.194,-0.105,-0.395,-0.21,0.013
0.018,-0.05,-0.05,0.0,0.05,-0.025,-0.025,-0.074,-0.201,-0.105,-0.394,-0.21,0.01
0.02,-0.05,-0.05,0.0,0.05,-0.025,-0.025,-0.07,-0.205,-0.105,-0.39,-0.21,0.01
0.022,-0.05,-0.05,0.0,0.05,-0.025,-0.025,-0.07,-0.209,-0.105,-0.39,-0.21,0.01
0.024,-0.05,-0.05,0.0,0.05,-0.025,-0.025,-0.071,-0.214,-0.105,-0.39,-0.21,0.007
0.026,-0.05,-0.05,0.0,0.05,-0.025,-0.025,-0.068,-0.215,-0.105,-0.39,-0.21,0.005
0.028,-0.05,-0.05,0.0,0.05,-0.025,-0.025,-0.065,-0.216,-0.105,-0.39,-0.21,0.005
0.03,-0.05,-0.05,0.0,0.05,-0.025,-0.025,-0.065,-0.22,-0.105,-0.39,-0.21,0.005
0.032,-0.054,-0.05,0.004,0.052,-0.029,-0.022,-0.065,-0.219,-0.105,-0.39,-0.21,0.005
0.034,-0.055,-0.05,0.005,0.052,-0.03,-0.022,-0.062,-0.226,-0.105,-0.391,-0.21,0.002
0.036,-0.055,-0.05,0.005,0.052,-0.03,-0.022,-0.059,-0.233,-0.105,-0.388,-0.21,-0.001
0.038,-0.055,-0.05,0.005,0.052,-0.03,-0.022,-0.06,-0.235,-0.105,-0.385,-0.21,0.0
0.04,-0.055,-0.05,0.005,0.052,-0.03,-0.022,-0.06,-0.235,-0.105,-0.385,-0.21,0.0
0.042,-0.055,-0.05,0.005,0.052,-0.03,-0.022,-0.056,-0.235,-0.105,-0.385,-0.21,0.0
0.044,-0.056,-0.05,0.006,0.052,-0.031,-0.022,-0.054,-0.234,-0.105,-0.385,-0.21,-0.003
0.046,-0.053,-0.05,0.003,0.051,-0.028,-0.023,-0.056,-0.237,-0.105,-0.385,-0.21,-0.006
0.048,-0.05,-0.05,0.0,0.05,-0.025,-0.025,-0.054,-0.24,-0.105,-0.385,-0.21,-0.005
0.05,-0.05,-0.05,0.0,0.05,-0.025,-0.025,-0.05,-0.24,-0.105,-0.385,-0.21,-0.005
0.052,-0.05,-0.05,0.0,0.05,-0.025,-0.025,-0.05,-0.244,-0.105,-0.385,-0.21,-0.009
0.054,-0.047,-0.05,-0.003,0.049,-0.022,-0.026,-0.05,-0.245,-0.104,-0.384,-0.209,-0.01
0.056,-0.045,-0.05,-0.005,0.048,-0.02,-0.027,-0.05,-0.247,-0.107,-0.387,-0.212,-0.01
0.058,-0.045,-0.05,-0.005,0.048,-0.02,-0.027,-0.049,-0.25,-0.11,-0.39,-0.215,-0.01
0.06,-0.045,-0.05,-0.005,0.048,-0.02,-0.027,-0.045,-0.25,-0.11,-0.39,-0.215,-0.01
0.062,-0.046,-0.05,-0.005,0.048,-0.02,-0.027,-0.041,-0.25,-0.11,-0.39,-0.215,-0.014
0.064,-0.042,-0.05,-0.008,0.046,-0.017,-0.029,-0.037,-0.25,-0.11,-0.39,-0.218,-0.015
0.066,-0.041,-0.051,-0.011,0.046,-0.015,-0.031,-0.033,-0.25,-0.11,-0.39,-0.22,-0.015
0.068,-0.046,-0.056,-0.01,0.051,-0.018,-0.033,-0.029,-0.25,-0.11,-0.39,-0.22,-0.015
0.07,-0.05,-0.06,-0.01,0.055,-0.02,-0.035,-0.025,-0.25,-0.11,-0.39,-0.22,-0.015
0.072,-0.051,-0.06,-0.01,0.055,-0.021,-0.035,-0.025,-0.25,-0.11,-0.39,-0.219,-0.015
0.074,-0.047,-0.06,-0.013,0.054,-0.017,-0.036,-0.022,-0.25,-0.11,-0.39,-0.23,-0.015
0.076,-0.044,-0.06,-0.016,0.053,-0.014,-0.037,-0.018,-0.25,-0.11,-0.39,-0.235,-0.015
0.078,-0.045,-0.06,-0.015,0.053,-0.015,-0.037,-0.014,-0.25,-0.11,-0.39,-0.229,-0.015
0.08,-0.045,-0.06,-0.015,0.053,-0.015,-0.037,-0.01,-0.25,-0.11,-0.39,-0.23,-0.015
0.082,-0.041,-0.06,-0.019,0.05,-0.011,-0.04,-0.006,-0.25,-0.11,-0.39,-0.23,-0.015
0.084,-0.04,-0.06,-0.02,0.05,-0.01,-0.04,-0.001,-0.25,-0.11,-0.39,-0.23,-0.015
0.086,-0.04,-0.06,-0.02,0.05,-0.01,-0.04,0.0,-0.25,-0.11,-0.39,-0.23,-0.015
0.088,-0.04,-0.06,-0.02,0.05,-0.01,-0.04,0.001,-0.25,-0.11,-0.39,-0.23,-0.015
0.09,-0.04,-0.06,-0.02,0.05,-0.01,-0.04,0.005,-0.25,-0.11,-0.39,-0.23,-0.015
0.092,-0.035,-0.059,-0.024,0.048,-0.006,-0.041,0.005,-0.25,-0.11,-0.39,-0.23,-0.015
0.094,-0.038,-0.064,-0.025,0.051,-0.006,-0.044,0.004,-0.25,-0.11,-0.39,-0.23,-0.015
0.096,-0.039,-0.064,-0.025,0.052,-0.006,-0.045,0.007,-0.25,-0.11,-0.39,-0.23,-0.016
0.098,-0.043,-0.068,-0.024,0.056,-0.009,-0.046,0.01,-0.25,-0.11,-0.39,-0.23,-0.021
0.1,-0.055,-0.08,-0.025,0.068,-0.015,-0.052,0.01,-0.25,-0.11,-0.39,-0.23,-0.025
0.102,-0.041,-0.079,-0.038,0.06,-0.002,-0.058,0.01,-0.25,-0.113,-0.389,-0.23,-0.028
0.104,-0.051,-0.089,-0.038,0.071,-0.006,-0.064,0.013,-0.25,-0.125,-0.4,-0.23,-0.04
0.106,-0.06,-0.095,-0.034,0.078,-0.013,-0.064,0.016,-0.25,-0.13,-0.405,-0.23,-0.045
0.108,-0.055,-0.089,-0.034,0.072,-0.01,-0.061,0.015,-0.25,-0.124,-0.399,-0.23,-0.039
0.11,-0.06,-0.09,-0.03,0.075,-0.015,-0.06,0.015,-0.25,-0.125,-0.4,-0.23,-0.04
0.112,-0.061,-0.091,-0.03,0.076,-0.016,-0.06,0.016,-0.261,-0.125,-0.401,-0.23,-0.04
0.114,-0.056,-0.087,-0.031,0.071,-0.012,-0.058,0.009,-0.275,-0.125,-0.397,-0.23,-0.04
0.116,-0.057,-0.085,-0.028,0.071,-0.014,-0.056,0.002,-0.283,-0.123,-0.395,-0.23,-0.04
0.118,-0.06,-0.085,-0.025,0.073,-0.017,-0.055,-0.001,-0.285,-0.12,-0.395,-0.23,-0.04
0.12,-0.06,-0.085,-0.025,0.073,-0.017,-0.055,-0.005,-0.285,-0.12,-0.395,-0.23,-0.04
0.122,-0.065,-0.085,-0.021,0.075,-0.021,-0.053,-0.009,-0.285,-0.12,-0.395,-0.23,-0.04
0.124,-0.063,-0.082,-0.019,0.072,-0.021,-0.05,-0.013,-0.285,-0.121,-0.392,-0.23,-0.037
0.126,-0.059,-0.079,-0.021,0.069,-0.019,-0.05,-0.017,-0.285,-0.118,-0.389,-0.23,-0.034
0.128,-0.061,-0.08,-0.019,0.071,-0.021,-0.049,-0.021,-0.285,-0.115,-0.39,-0.23,-0.035
0.13,-0.065,-0.08,-0.015,0.073,-0.025,-0.047,-0.025,-0.285,-0.115,-0.39,-0.23,-0.035
0.132,-0.065,-0.08,-0.015,0.073,-0.025,-0.047,-0.025,-0.285,-0.115,-0.39,-0.234,-0.035
0.134,-0.065,-0.077,-0.012,0.071,-0.026,-0.044,-0.028,-0.285,-0.115,-0.387,-0.235,-0.035
0.136,-0.065,-0.074,-0.009,0.07,-0.027,-0.041,-0.031,-0.285,-0.115,-0.384,-0.235,-0.035
0.138,-0.065,-0.075,-0.01,0.07,-0.027,-0.042,-0.029,-0.285,-0.114,-0.385,-0.235,-0.035
0.14,-0.065,-0.075,-0.01,0.07,-0.027,-0.042,-0.025,-0.285,-0.11,-0.385,-0.235,-0.035
0.142,-0.065,-0.071,-0.006,0.068,-0.029,-0.038,-0.025,-0.285,-0.11,-0.381,-0.235,-0.031
0.144,-0.065,-0.07,-0.004,0.068,-0.03,-0.037,-0.025,-0.288,-0.11,-0.38,-0.235,-0.03
0.146,-0.064,-0.07,-0.006,0.068,-0.029,-0.037,-0.025,-0.291,-0.11,-0.38,-0.235,-0.03
0.148,-0.066,-0.07,-0.004,0.069,-0.031,-0.037,-0.025,-0.29,-0.109,-0.38,-0.235,-0.03
0.15,-0.07,-0.07,0.0,0.07,-0.035,-0.035,-0.025,-0.29,-0.105,-0.38,-0.235,-0.03
0.152,-0.066,-0.066,0.0,0.066,-0.032,-0.033,-0.025,-0.29,-0.105,-0.376,-0.235,-0.03
0.154,-0.068,-0.065,0.003,0.066,-0.035,-0.03,-0.026,-0.29,-0.105,-0.375,-0.235,-0.03
0.156,-0.07,-0.065,0.005,0.067,-0.037,-0.03,-0.023,-0.29,-0.105,-0.375,-0.235,-0.03
0.158,-0.071,-0.065,0.006,0.067,-0.038,-0.03,-0.02,-0.29,-0.105,-0.375,-0.235,-0.03
0.16,-0.075,-0.065,0.01,0.07,-0.042,-0.027,-0.02,-0.29,-0.105,-0.375,-0.235,-0.03
0.162,-0.076,-0.065,0.011,0.07,-0.043,-0.027,-0.02,-0.29,-0.109,-0.379,-0.235,-0.034
0.164,-0.072,-0.065,0.007,0.068,-0.039,-0.029,-0.02,-0.29,-0.113,-0.381,-0.235,-0.035
0.166,-0.07,-0.065,0.005,0.067,-0.037,-0.03,-0.02,-0.29,-0.117,-0.379,-0.235,-0.035
0.168,-0.069,-0.065,0.004,0.067,-0.036,-0.03,-0.02,-0.29,-0.121,-0.381,-0.235,-0.035
0.17,-0.065,-0.065,0.0,0.065,-0.032,-0.032,-0.02,-0.29,-0.125,-0.385,-0.235,-0.035
0.172,-0.065,-0.065,0.0,0.065,-0.032,-0.032,-0.02,-0.294,-0.129,-0.385,-0.235,-0.035
0.174,-0.062,-0.065,-0.003,0.064,-0.029,-0.034,-0.017,-0.299,-0.133,-0.385,-0.234,-0.035
0.176,-0.06,-0.066,-0.005,0.064,-0.027,-0.035,-0.014,-0.298,-0.137,-0.384,-0.239,-0.034
0.178,-0.067,-0.073,-0.006,0.071,-0.031,-0.039,-0.015,-0.294,-0.141,-0.388,-0.246,-0.038
0.18,-0.075,-0.085,-0.01,0.08,-0.032,-0.047,-0.015,-0.295,-0.145,-0.4,-0.25,-0.05
0.182,-0.072,-0.081,-0.01,0.076,-0.031,-0.046,-0.015,-0.295,-0.141,-0.397,-0.255,-0.046
0.184,-0.066,-0.079,-0.013,0.073,-0.027,-0.046,-0.015,-0.295,-0.139,-0.392,-0.252,-0.044
0.186,-0.065,-0.081,-0.016,0.073,-0.024,-0.048,-0.015,-0.295,-0.14,-0.388,-0.249,-0.045
0.188,-0.065,-0.079,-0.014,0.073,-0.025,-0.046,-0.015,-0.295,-0.14,-0.384,-0.25,-0.045
0.19,-0.065,-0.075,-0.01,0.07,-0.027,-0.042,-0.015,-0.295,-0.14,-0.38,-0.25,-0.045
0.192,-0.065,-0.075,-0.01,0.07,-0.027,-0.042,-0.015,-0.295,-0.14,-0.376,-0.25,-0.045
0.194,-0.065,-0.076,-0.01,0.071,-0.027,-0.042,-0.012,-0.295,-0.14,-0.375,-0.25,-0.045
0.196,-0.063,-0.073,-0.01,0.068,-0.026,-0.041,-0.009,-0.295,-0.14,-0.373,-0.25,-0.045
0.198,-0.059,-0.07,-0.01,0.064,-0.025,-0.04,-0.01,-0.295,-0.139,-0.37,-0.25,-0.045
0.2,-0.06,-0.07,-0.01,0.065,-0.025,-0.04,-0.01,-0.295,-0.135,-0.37,-0.25,-0.045
0.202,-0.065,-0.07,-0.006,0.068,-0.029,-0.038,-0.01,-0.295,-0.135,-0.37,-0.246,-0.045
0.204,-0.062,-0.067,-0.005,0.065,-0.029,-0.036,-0.007,-0.292,-0.135,-0.37,-0.245,-0.045
0.206,-0.059,-0.064,-0.005,0.062,-0.027,-0.035,-0.004,-0.289,-0.135,-0.37,-0.245,-0.045
0.208,-0.06,-0.065,-0.005,0.063,-0.027,-0.035,-0.005,-0.29,-0.135,-0.369,-0.245,-0.044
0.21,-0.06,-0.065,-0.005,0.063,-0.027,-0.035,-0.005,-0.29,-0.135,-0.365,-0.245,-0.04
0.212,-0.056,-0.061,-0.005,0.059,-0.025,-0.032,-0.005,-0.29,-0.135,-0.365,-0.245,-0.04
0.214,-0.054,-0.059,-0.006,0.057,-0.024,-0.032,-0.002,-0.29,-0.136,-0.365,-0.245,-0.04
0.216,-0.057,-0.061,-0.003,0.059,-0.027,-0.032,0.001,-0.29,-0.133,-0.365,-0.245,-0.04
0.218,-0.06,-0.059,0.0,0.059,-0.03,-0.029,0.0,-0.29,-0.13,-0.365,-0.244,-0.04
0.22,-0.055,-0.055,0.0,0.055,-0.027,-0.027,0.0,-0.29,-0.13,-0.365,-0.24,-0.04
0.222,-0.055,-0.055,0.0,0.055,-0.027,-0.027,0.0,-0.29,-0.13,-0.365,-0.24,-0.04
0.224,-0.056,-0.056,0.0,0.056,-0.027,-0.027,-0.001,-0.29,-0.13,-0.362,-0.24,-0.04
0.226,-0.053,-0.053,0.0,0.053,-0.026,-0.026,0.002,-0.29,-0.13,-0.359,-0.24,-0.04
0.228,-0.05,-0.05,0.001,0.05,-0.026,-0.024,0.005,-0.29,-0.13,-0.36,-0.24,-0.04
0.23,-0.055,-0.05,0.005,0.052,-0.03,-0.022,0.005,-0.29,-0.13,-0.36,-0.24,-0.04
0.232,-0.055,-0.05,0.005,0.052,-0.03,-0.022,0.005,-0.286,-0.13,-0.36,-0.24,-0.04
0.234,-0.054,-0.049,0.005,0.051,-0.03,-0.022,0.004,-0.284,-0.131,-0.361,-0.24,-0.041
0.236,-0.057,-0.052,0.005,0.054,-0.031,-0.023,0.007,-0.286,-0.128,-0.358,-0.24,-0.038
0.238,-0.06,-0.055,0.005,0.057,-0.032,-0.025,0.01,-0.284,-0.125,-0.355,-0.239,-0.035
0.24,-0.06,-0.055,0.005,0.057,-0.032,-0.025,0.01,-0.28,-0.125,-0.355,-0.235,-0.035
0.242,-0.061,-0.055,0.005,0.057,-0.033,-0.025,0.01,-0.28,-0.125,-0.355,-0.235,-0.035
0.244,-0.056,-0.054,0.002,0.055,-0.028,-0.026,0.01,-0.281,-0.125,-0.355,-0.235,-0.035
0.246,-0.058,-0.058,-0.001,0.058,-0.028,-0.029,0.01,-0.278,-0.125,-0.355,-0.235,-0.035
0.248,-0.067,-0.067,0.0,0.067,-0.033,-0.033,0.009,-0.275,-0.125,-0.355,-0.234,-0.035
0.25,-0.07,-0.07,0.0,0.07,-0.035,-0.035,0.005,-0.275,-0.125,-0.355,-0.23,-0.035
0.252,-0.07,-0.07,0.0,0.07,-0.035,-0.035,0.005,-0.275,-0.121,-0.355,-0.23,-0.035
0.254,-0.07,-0.07,0.0,0.07,-0.035,-0.035,0.005,-0.272,-0.12,-0.355,-0.23,-0.035
0.256,-0.07,-0.07,0.0,0.07,-0.035,-0.035,0.005,-0.269,-0.12,-0.355,-0.23,-0.035
0.258,-0.07,-0.07,0.0,0.07,-0.035,-0.035,0.005,-0.27,-0.12,-0.355,-0.229,-0.035
0.26,-0.07,-0.07,0.0,0.07,-0.035,-0.035,0.005,-0.27,-0.12,-0.355,-0.225,-0.035
0.262,-0.07,-0.07,0.0,0.07,-0.035,-0.035,0.005,-0.266,-0.12,-0.355,-0.225,-0.035
0.264,-0.069,-0.069,0.0,0.069,-0.035,-0.035,0.006,-0.264,-0.121,-0.355,-0.225,-0.035
0.266,-0.072,-0.072,0.0,0.072,-0.036,-0.036,0.003,-0.266,-0.118,-0.355,-0.225,-0.035
0.268,-0.075,-0.075,0.0,0.075,-0.037,-0.037,0.0,-0.264,-0.115,-0.355,-0.225,-0.035
0.27,-0.075,-0.075,0.0,0.075,-0.037,-0.037,0.0,-0.26,-0.115,-0.355,-0.225,-0.035
0.272,-0.075,-0.075,0.0,0.075,-0.037,-0.037,0.0,-0.26,-0.115,-0.355,-0.221,-0.035
0.274,-0.075,-0.075,0.0,0.075,-0.037,-0.037,0.0,-0.261,-0.115,-0.355,-0.22,-0.035
0.276,-0.076,-0.075,0.001,0.076,-0.038,-0.036,0.0,-0.258,-0.115,-0.355,-0.22,-0.035
0.278,-0.072,-0.075,-0.003,0.074,-0.034,-0.038,0.0,-0.255,-0.115,-0.355,-0.22,-0.035
0.28,-0.055,-0.075,-0.02,0.065,-0.017,-0.047,0.0,-0.255,-0.115,-0.355,-0.22,-0.035
0.282,-0.038,-0.074,-0.036,0.056,-0.001,-0.054,-0.001,-0.254,-0.107,-0.355,-0.216,-0.029
0.284,-0.029,-0.082,-0.053,0.056,0.012,-0.068,0.008,-0.26,-0.102,-0.357,-0.214,-0.045
0.286,-0.034,-0.099,-0.064,0.067,0.015,-0.082,0.02,-0.236,-0.097,-0.349,-0.216,-0.059
0.288,-0.04,-0.122,-0.082,0.081,0.022,-0.102,0.027,-0.182,-0.096,-0.34,-0.214,-0.071
0.29,-0.03,-0.14,-0.11,0.085,0.04,-0.125,0.035,-0.14,-0.09,-0.33,-0.215,-0.095
0.292,-0.022,-0.125,-0.103,0.074,0.041,-0.114,0.047,-0.108,-0.036,-0.271,-0.221,-0.072
0.294,-0.012,-0.108,-0.096,0.061,0.042,-0.101,0.055,-0.076,0.021,-0.215,-0.17,-0.05
0.296,0.004,-0.09,-0.094,0.043,0.049,-0.091,0.068,-0.043,0.086,-0.144,-0.108,-0.022
0.298,0.016,-0.072,-0.088,0.028,0.053,-0.079,0.065,0.004,0.172,-0.036,-0.036,0.047
0.3,0.025,-0.055,-0.08,0.015,0.053,-0.067,0.03,0.04,0.255,0.085,0.1,0.16
0.302,0.073,-0.003,-0.076,-0.034,0.074,-0.04,0.002,-0.018,0.319,0.219,0.272,0.304
0.304,0.147,0.077,-0.07,-0.112,0.108,0.003,-0.067,-0.107,0.386,0.37,0.478,0.482
0.306,0.22,0.144,-0.076,-0.182,0.147,0.034,-0.163,-0.208,0.401,0.512,0.702,0.678
0.308,0.296,0.184,-0.113,-0.24,0.204,0.035,-0.26,-0.317,0.368,0.618,0.908,0.864
0.31,0.39,0.22,-0.17,-0.305,0.28,0.025,-0.36,-0.42,0.345,0.705,1.095,1.04
0.312,0.484,0.271,-0.213,-0.377,0.348,0.029,-0.46,-0.522,0.297,0.811,1.316,1.237
0.314,0.6,0.329,-0.271,-0.464,0.435,0.029,-0.598,-0.647,0.176,0.882,1.55,1.455
0.316,0.73,0.394,-0.336,-0.561,0.533,0.028,-0.766,-0.829,-0.036,0.88,1.76,1.689
0.318,0.857,0.48,-0.377,-0.668,0.616,0.051,-0.928,-1.023,-0.258,0.85,1.947,1.93
0.32,0.985,0.59,-0.395,-0.787,0.69,0.097,-1.075,-1.17,-0.425,0.825,2.115,2.155
0.322,1.107,0.685,-0.422,-0.896,0.764,0.132,-1.235,-1.308,-0.635,0.721,2.186,2.314
0.324,1.172,0.755,-0.418,-0.963,0.795,0.169,-1.351,-1.422,-0.844,0.529,2.106,2.317
0.326,1.206,0.798,-0.408,-1.002,0.807,0.195,-1.423,-1.514,-0.997,0.333,1.966,2.29
0.328,1.183,0.791,-0.392,-0.987,0.787,0.2,-1.469,-1.585,-1.089,0.161,1.793,2.229
0.33,1.08,0.735,-0.345,-0.907,0.712,0.195,-1.475,-1.655,-1.155,-0.05,1.5,2.0
0.332,0.995,0.692,-0.304,-0.843,0.649,0.193,-1.423,-1.754,-1.227,-0.339,1.073,1.68
0.334,0.828,0.596,-0.232,-0.712,0.53,0.182,-1.31,-1.744,-1.292,-0.667,0.593,1.301
0.336,0.617,0.464,-0.152,-0.54,0.385,0.156,-1.151,-1.699,-1.328,-0.982,0.098,0.886
0.338,0.44,0.377,-0.063,-0.408,0.252,0.157,-0.986,-1.641,-1.29,-1.163,-0.271,0.556
0.34,0.3,0.36,0.06,-0.33,0.12,0.21,-0.84,-1.49,-1.15,-1.13,-0.38,0.4
0.342,0.184,0.339,0.155,-0.262,0.015,0.246,-0.689,-1.313,-0.967,-1.011,-0.37,0.302
0.344,0.138,0.298,0.16,-0.219,-0.011,0.229,-0.568,-1.149,-0.821,-0.9,-0.359,0.252
0.346,0.117,0.252,0.135,-0.185,-0.009,0.193,-0.476,-0.991,-0.698,-0.798,-0.344,0.215
0.348,0.089,0.211,0.121,-0.151,-0.016,0.165,-0.404,-0.856,-0.584,-0.704,-0.312,0.176
0.35,0.075,0.18,0.105,-0.128,-0.015,0.142,-0.35,-0.76,-0.495,-0.635,-0.285,0.15
0.352,0.063,0.153,0.09,-0.109,-0.014,0.122,-0.294,-0.671,-0.426,-0.579,-0.276,0.127
0.354,0.048,0.113,0.065,-0.08,-0.009,0.089,-0.241,-0.589,-0.365,-0.524,-0.269,0.092
0.356,0.033,0.069,0.036,-0.051,-0.001,0.053,-0.189,-0.512,-0.306,-0.479,-0.261,0.049
0.358,0.013,0.029,0.017,-0.021,-0.002,0.023,-0.137,-0.435,-0.253,-0.44,-0.253,0.02
0.36,-0.03,-0.02,0.01,0.025,-0.02,-0.005,-0.085,-0.36,-0.21,-0.4,-0.245,0.01
0.362,-0.079,-0.072,0.006,0.075,-0.043,-0.032,-0.03,-0.307,-0.168,-0.372,-0.237,0.002
0.364,-0.083,-0.084,-0.001,0.083,-0.041,-0.042,-0.007,-0.255,-0.146,-0.342,-0.232,-0.005
0.366,-0.071,-0.079,-0.007,0.076,-0.032,-0.043,-0.002,-0.225,-0.133,-0.323,-0.228,-0.016
0.368,-0.069,-0.08,-0.012,0.074,-0.029,-0.046,0.007,-0.218,-0.116,-0.319,-0.225,-0.027
0.37,-0.06,-0.08,-0.02,0.07,-0.02,-0.05,0.015,-0.21,-0.1,-0.315,-0.225,-0.035
0.372,-0.055,-0.08,-0.025,0.068,-0.015,-0.052,0.023,-0.202,-0.088,-0.307,-0.225,-0.043
0.374,-0.058,-0.08,-0.022,0.069,-0.018,-0.051,0.031,-0.191,-0.078,-0.302,-0.222,-0.049
0.376,-0.061,-0.08,-0.019,0.07,-0.021,-0.05,0.039,-0.18,-0.073,-0.296,-0.22,-0.05
0.378,-0.06,-0.08,-0.02,0.07,-0.02,-0.05,0.046,-0.173,-0.069,-0.289,-0.22,-0.05
0.38,-0.06,-0.08,-0.02,0.07,-0.02,-0.05,0.05,-0.165,-0.065,-0.285,-0.22,-0.05
0.382,-0.064,-0.08,-0.016,0.073,-0.024,-0.047,0.054,-0.157,-0.061,-0.281,-0.22,-0.054
0.384,-0.065,-0.08,-0.015,0.073,-0.025,-0.047,0.056,-0.149,-0.057,-0.277,-0.217,-0.055
0.386,-0.066,-0.08,-0.014,0.073,-0.026,-0.047,0.054,-0.141,-0.053,-0.273,-0.214,-0.055
0.388,-0.064,-0.08,-0.016,0.072,-0.024,-0.048,0.057,-0.133,-0.049,-0.269,-0.215,-0.054
0.39,-0.055,-0.08,-0.025,0.068,-0.015,-0.052,0.07,-0.125,-0.045,-0.265,-0.215,-0.05
0.392,-0.051,-0.08,-0.029,0.065,-0.011,-0.055,0.071,-0.117,-0.045,-0.261,-0.215,-0.05
0.394,-0.047,-0.08,-0.033,0.064,-0.007,-0.056,0.068,-0.112,-0.042,-0.26,-0.212,-0.05
0.396,-0.042,-0.08,-0.038,0.061,-0.002,-0.059,0.075,-0.108,-0.04,-0.258,-0.209,-0.05
0.398,-0.04,-0.08,-0.04,0.06,0.0,-0.06,0.087,-0.105,-0.039,-0.255,-0.21,-0.05
0.4,-0.045,-0.08,-0.035,0.063,-0.005,-0.057,0.09,-0.105,-0.035,-0.255,-0.21,-0.05
0.402,-0.045,-0.08,-0.035,0.063,-0.005,-0.057,0.09,-0.105,-0.035,-0.251,-0.206,-0.05
0.404,-0.045,-0.08,-0.035,0.063,-0.005,-0.057,0.089,-0.102,-0.032,-0.25,-0.205,-0.05
0.406,-0.045,-0.08,-0.035,0.063,-0.005,-0.057,0.092,-0.099,-0.03,-0.248,-0.205,-0.05
0.408,-0.045,-0.08,-0.035,0.063,-0.005,-0.057,0.095,-0.1,-0.029,-0.245,-0.205,-0.05
0.41,-0.045,-0.08,-0.035,0.063,-0.005,-0.057,0.095,-0.1,-0.025,-0.245,-0.205,-0.05
0.412,-0.049,-0.08,-0.031,0.065,-0.009,-0.055,0.094,-0.096,-0.026,-0.241,-0.201,-0.05
0.414,-0.05,-0.08,-0.03,0.065,-0.01,-0.055,0.098,-0.095,-0.019,-0.24,-0.2,-0.051
0.416,-0.05,-0.08,-0.03,0.065,-0.01,-0.055,0.1,-0.095,-0.012,-0.238,-0.2,-0.048
0.418,-0.049,-0.079,-0.03,0.064,-0.01,-0.054,0.101,-0.095,-0.009,-0.235,-0.2,-0.045
0.42,-0.045,-0.075,-0.03,0.06,-0.007,-0.052,0.105,-0.095,-0.005,-0.235,-0.2,-0.045
0.422,-0.045,-0.075,-0.03,0.06,-0.007,-0.052,0.109,-0.087,0.003,-0.227,-0.196,-0.045
0.424,-0.045,-0.075,-0.031,0.06,-0.007,-0.052,0.113,-0.082,0.009,-0.221,-0.194,-0.045
0.426,-0.047,-0.075,-0.028,0.061,-0.009,-0.051,0.117,-0.076,0.011,-0.219,-0.196,-0.045
0.428,-0.05,-0.075,-0.025,0.063,-0.012,-0.05,0.121,-0.069,0.018,-0.213,-0.194,-0.045
0.43,-0.05,-0.075,-0.025,0.063,-0.012,-0.05,0.12,-0.065,0.03,-0.205,-0.19,-0.045
0.432,-0.05,-0.075,-0.025,0.063,-0.012,-0.05,0.116,-0.057,0.031,-0.201,-0.19,-0.045
0.434,-0.05,-0.075,-0.025,0.063,-0.012,-0.05,0.115,-0.052,0.03,-0.197,-0.19,-0.045
0.436,-0.05,-0.075,-0.025,0.063,-0.012,-0.05,0.113,-0.048,0.03,-0.193,-0.19,-0.045
0.438,-0.051,-0.075,-0.024,0.063,-0.013,-0.05,0.11,-0.045,0.029,-0.19,-0.189,-0.045
0.44,-0.055,-0.075,-0.02,0.065,-0.017,-0.047,0.11,-0.045,0.03,-0.19,-0.185,-0.045
0.442,-0.055,-0.075,-0.02,0.065,-0.017,-0.047,0.106,-0.045,0.042,-0.186,-0.185,-0.045
0.444,-0.055,-0.075,-0.02,0.065,-0.017,-0.047,0.105,-0.045,0.049,-0.184,-0.186,-0.048
0.446,-0.055,-0.075,-0.02,0.065,-0.017,-0.047,0.102,-0.045,0.05,-0.186,-0.183,-0.051
0.448,-0.055,-0.075,-0.02,0.065,-0.017,-0.047,0.093,-0.045,0.05,-0.184,-0.18,-0.05
0.45,-0.055,-0.075,-0.02,0.065,-0.017,-0.047,0.085,-0.045,0.05,-0.18,-0.18,-0.05
0.452,-0.055,-0.075,-0.02,0.065,-0.017,-0.047,0.081,-0.048,0.05,-0.18,-0.18,-0.05
0.454,-0.058,-0.075,-0.017,0.067,-0.02,-0.046,0.074,-0.058,0.05,-0.181,-0.181,-0.05
0.456,-0.061,-0.075,-0.014,0.068,-0.023,-0.045,0.066,-0.073,0.05,-0.178,-0.178,-0.05
0.458,-0.06,-0.075,-0.015,0.068,-0.022,-0.045,0.058,-0.08,0.05,-0.175,-0.175,-0.049
0.46,-0.06,-0.075,-0.015,0.068,-0.022,-0.045,0.055,-0.075,0.05,-0.175,-0.175,-0.045
0.462,-0.06,-0.075,-0.015,0.068,-0.022,-0.045,0.059,-0.07,0.05,-0.175,-0.175,-0.045
0.464,-0.06,-0.075,-0.015,0.068,-0.022,-0.045,0.06,-0.07,0.05,-0.172,-0.175,-0.045
0.466,-0.06,-0.075,-0.015,0.068,-0.022,-0.045,0.06,-0.069,0.05,-0.169,-0.174,-0.045
0.468,-0.06,-0.075,-0.015,0.068,-0.022,-0.045,0.06,-0.064,0.05,-0.17,-0.169,-0.045
0.47,-0.06,-0.075,-0.015,0.068,-0.022,-0.045,0.06,-0.06,0.05,-0.17,-0.165,-0.045
0.472,-0.06,-0.075,-0.015,0.068,-0.022,-0.045,0.06,-0.061,0.05,-0.162,-0.165,-0.045
0.474,-0.063,-0.078,-0.015,0.071,-0.024,-0.046,0.06,-0.054,0.05,-0.156,-0.162,-0.046
0.476,-0.066,-0.081,-0.015,0.074,-0.025,-0.047,0.062,-0.047,0.049,-0.154,-0.16,-0.043
0.478,-0.065,-0.08,-0.015,0.073,-0.025,-0.047,0.066,-0.044,0.052,-0.148,-0.16,-0.04
0.48,-0.065,-0.08,-0.015,0.073,-0.025,-0.047,0.07,-0.04,0.06,-0.14,-0.155,-0.04
0.482,-0.065,-0.08,-0.015,0.073,-0.025,-0.047,0.074,-0.036,0.063,-0.136,-0.15,-0.04
0.484,-0.065,-0.08,-0.015,0.073,-0.025,-0.047,0.078,-0.032,0.074,-0.132,-0.15,-0.04
0.486,-0.065,-0.08,-0.015,0.073,-0.025,-0.047,0.082,-0.028,0.084,-0.128,-0.148,-0.04
0.488,-0.065,-0.08,-0.015,0.073,-0.025,-0.047,0.087,-0.023,0.085,-0.124,-0.145,-0.04
0.49,-0.065,-0.08,-0.015,0.073,-0.025,-0.047,0.095,-0.015,0.085,-0.12,-0.145,-0.04
0.492,-0.065,-0.08,-0.015,0.073,-0.025,-0.047,0.099,-0.007,0.093,-0.116,-0.141,-0.04
0.494,-0.065,-0.08,-0.015,0.073,-0.025,-0.047,0.103,-0.002,0.099,-0.112,-0.136,-0.037
0.496,-0.065,-0.08,-0.015,0.073,-0.025,-0.047,0.107,0.003,0.101,-0.108,-0.135,-0.034
0.498,-0.065,-0.08,-0.015,0.073,-0.025,-0.047,0.111,0.012,0.107,-0.104,-0.134,-0.035
0.5,-0.065,-0.08,-0.015,0.073,-0.025,-0.047,0.115,0.02,0.115,-0.1,-0.13,-0.035
0.502,-0.065,-0.08,-0.015,0.073,-0.025,-0.047,0.115,0.023,0.122,-0.092,-0.125,-0.035
0.504,-0.065,-0.08,-0.015,0.073,-0.025,-0.047,0.118,0.037,0.137,-0.087,-0.125,-0.035
0.506,-0.065,-0.08,-0.015,0.073,-0.025,-0.047,0.122,0.051,0.149,-0.081,-0.123,-0.035
0.508,-0.064,-0.08,-0.016,0.072,-0.024,-0.048,0.127,0.055,0.15,-0.074,-0.12,-0.035
0.51,-0.06,-0.08,-0.02,0.07,-0.02,-0.05,0.135,0.06,0.155,-0.07,-0.12,-0.035
0.512,-0.06,-0.08,-0.02,0.07,-0.02,-0.05,0.139,0.076,0.172,-0.062,-0.116,-0.035
0.514,-0.057,-0.08,-0.023,0.069,-0.017,-0.051,0.143,0.086,0.175,-0.057,-0.114,-0.035
0.516,-0.054,-0.08,-0.026,0.068,-0.014,-0.052,0.147,0.096,0.18,-0.053,-0.116,-0.035
0.518,-0.055,-0.08,-0.025,0.068,-0.015,-0.052,0.151,0.107,0.192,-0.049,-0.114,-0.035
0.52,-0.055,-0.08,-0.025,0.068,-0.015,-0.052,0.155,0.11,0.195,-0.045,-0.11,-0.035
0.522,-0.051,-0.08,-0.029,0.065,-0.011,-0.055,0.155,0.109,0.2,-0.041,-0.11,-0.034
0.524,-0.05,-0.08,-0.03,0.065,-0.01,-0.055,0.158,0.121,0.199,-0.037,-0.111,-0.04
0.526,-0.048,-0.08,-0.032,0.064,-0.008,-0.056,0.16,0.135,0.205,-0.032,-0.108,-0.05
0.528,-0.045,-0.08,-0.035,0.063,-0.005,-0.057,0.161,0.141,0.217,-0.03,-0.105,-0.055
0.53,-0.05,-0.085,-0.035,0.068,-0.007,-0.06,0.17,0.15,0.22,-0.03,-0.105,-0.05
0.532,-0.058,-0.094,-0.036,0.077,-0.011,-0.065,0.179,0.163,0.219,-0.018,-0.105,-0.05
0.534,-0.063,-0.09,-0.027,0.077,-0.018,-0.058,0.182,0.167,0.225,-0.008,-0.102,-0.047
0.536,-0.067,-0.083,-0.015,0.075,-0.026,-0.048,0.191,0.178,0.235,-0.002,-0.099,-0.045
0.538,-0.07,-0.078,-0.008,0.074,-0.031,-0.043,0.202,0.191,0.249,0.008,-0.1,-0.044
0.54,-0.07,-0.07,0.0,0.07,-0.035,-0.035,0.205,0.19,0.265,0.02,-0.1,-0.04
0.542,-0.078,-0.066,0.012,0.072,-0.045,-0.027,0.208,0.205,0.277,0.028,-0.092,-0.04
0.544,-0.081,-0.059,0.022,0.069,-0.051,-0.019,0.216,0.22,0.292,0.037,-0.084,-0.037
0.546,-0.08,-0.053,0.027,0.066,-0.053,-0.013,0.223,0.229,0.305,0.042,-0.076,-0.033
0.548,-0.088,-0.048,0.04,0.068,-0.064,-0.004,0.225,0.237,0.312,0.047,-0.068,-0.029
0.55,-0.1,-0.04,0.06,0.07,-0.08,0.01,0.225,0.24,0.32,0.06,-0.06,-0.025
0.552,-0.096,-0.036,0.06,0.066,-0.077,0.011,0.229,0.236,0.332,0.069,-0.052,-0.025
0.554,-0.097,-0.029,0.068,0.063,-0.082,0.019,0.233,0.231,0.339,0.073,-0.043,-0.023
0.556,-0.101,-0.023,0.079,0.062,-0.09,0.028,0.237,0.23,0.34,0.077,-0.041,-0.017
0.558,-0.099,-0.018,0.08,0.058,-0.089,0.031,0.24,0.229,0.34,0.081,-0.046,-0.015
0.56,-0.09,-0.01,0.08,0.05,-0.085,0.035,0.24,0.225,0.34,0.085,-0.045,-0.015
0.562,-0.084,-0.006,0.079,0.045,-0.081,0.036,0.24,0.225,0.34,0.086,-0.045,-0.011
0.564,-0.091,-0.002,0.089,0.046,-0.09,0.043,0.243,0.223,0.337,0.082,-0.045,-0.006
0.566,-0.095,0.002,0.098,0.046,-0.097,0.05,0.246,0.217,0.332,0.08,-0.045,-0.005
0.568,-0.096,0.005,0.102,0.046,-0.1,0.053,0.244,0.215,0.33,0.079,-0.046,-0.004
0.57,-0.105,0.005,0.11,0.05,-0.108,0.057,0.245,0.215,0.33,0.075,-0.05,0.0
0.572,-0.105,0.009,0.114,0.047,-0.11,0.061,0.259,0.21,0.326,0.075,-0.05,0.0
0.574,-0.109,0.01,0.119,0.049,-0.114,0.064,0.253,0.211,0.321,0.072,-0.05,-0.001
0.576,-0.107,0.011,0.118,0.048,-0.113,0.065,0.24,0.203,0.321,0.071,-0.05,0.002
0.578,-0.098,0.016,0.115,0.04,-0.107,0.065,0.233,0.186,0.318,0.068,-0.05,0.005
0.58,-0.095,0.02,0.115,0.037,-0.105,0.067,0.225,0.175,0.305,0.055,-0.05,0.005
0.582,-0.091,0.02,0.111,0.036,-0.101,0.065,0.217,0.159,0.293,0.047,-0.054,0.005
0.584,-0.086,0.023,0.109,0.032,-0.098,0.066,0.209,0.146,0.28,0.039,-0.055,0.008
0.586,-0.085,0.025,0.111,0.03,-0.098,0.067,0.201,0.132,0.271,0.031,-0.055,0.01
0.588,-0.084,0.025,0.109,0.029,-0.097,0.067,0.192,0.117,0.262,0.023,-0.055,0.01
0.59,-0.08,0.025,0.105,0.027,-0.093,0.065,0.18,0.105,0.245,0.015,-0.055,0.01
0.592,-0.081,0.024,0.105,0.028,-0.093,0.064,0.172,0.093,0.233,0.007,-0.055,0.009
0.594,-0.072,0.034,0.106,0.019,-0.089,0.069,0.161,0.082,0.218,-0.004,-0.055,0.016
0.596,-0.059,0.044,0.103,0.008,-0.081,0.073,0.151,0.064,0.204,-0.015,-0.055,0.022
0.598,-0.055,0.045,0.1,0.005,-0.078,0.072,0.142,0.04,0.191,-0.022,-0.055,0.027
0.6,-0.055,0.045,0.1,0.005,-0.078,0.072,0.13,0.02,0.175,-0.03,-0.055,0.035
0.602,-0.051,0.049,0.1,0.001,-0.076,0.075,0.123,-0.004,0.159,-0.038,-0.055,0.039
0.604,-0.046,0.051,0.097,-0.003,-0.071,0.074,0.108,-0.026,0.142,-0.046,-0.055,0.046
0.606,-0.047,0.048,0.094,-0.001,-0.071,0.071,0.094,-0.041,0.129,-0.054,-0.055,0.053
0.608,-0.05,0.045,0.095,0.002,-0.073,0.07,0.081,-0.054,0.116,-0.062,-0.055,0.054
0.61,-0.05,0.045,0.095,0.002,-0.073,0.07,0.065,-0.07,0.1,-0.07,-0.055,0.05
0.612,-0.05,0.041,0.091,0.005,-0.071,0.066,0.052,-0.082,0.084,-0.086,-0.058,0.05
0.614,-0.048,0.039,0.087,0.004,-0.067,0.063,0.044,-0.099,0.068,-0.096,-0.066,0.047
0.616,-0.042,0.041,0.083,0.001,-0.063,0.061,0.036,-0.119,0.054,-0.106,-0.073,0.045
0.618,-0.04,0.039,0.079,0.0,-0.06,0.059,0.028,-0.133,0.042,-0.118,-0.075,0.044
0.62,-0.04,0.035,0.075,0.002,-0.058,0.055,0.02,-0.14,0.03,-0.125,-0.075,0.04
0.622,-0.036,0.035,0.071,0.0,-0.054,0.053,0.012,-0.148,0.022,-0.129,-0.083,0.04
0.624,-0.035,0.032,0.067,0.001,-0.051,0.049,0.004,-0.158,0.011,-0.134,-0.089,0.037
0.626,-0.034,0.029,0.063,0.002,-0.048,0.046,-0.005,-0.174,0.001,-0.15,-0.092,0.034
0.628,-0.029,0.031,0.059,-0.001,-0.044,0.045,-0.01,-0.187,-0.008,-0.168,-0.096,0.035
0.63,-0.025,0.03,0.055,-0.003,-0.04,0.042,-0.005,-0.185,-0.02,-0.175,-0.1,0.035
0.632,-0.029,0.022,0.051,0.003,-0.04,0.036,-0.005,-0.184,-0.028,-0.179,-0.104,0.031
0.634,-0.031,0.016,0.047,0.007,-0.039,0.032,-0.006,-0.19,-0.038,-0.182,-0.108,0.03
0.636,-0.03,0.013,0.043,0.008,-0.037,0.028,-0.003,-0.2,-0.052,-0.189,-0.112,0.028
0.638,-0.03,0.009,0.039,0.011,-0.035,0.024,0.0,-0.206,-0.061,-0.196,-0.115,0.025
0.64,-0.03,0.005,0.035,0.012,-0.033,0.02,0.0,-0.21,-0.065,-0.2,-0.12,0.025
0.642,-0.03,0.001,0.031,0.014,-0.03,0.016,0.0,-0.215,-0.073,-0.208,-0.136,0.021
0.644,-0.033,-0.003,0.03,0.018,-0.031,0.013,0.0,-0.212,-0.078,-0.213,-0.145,0.02
0.646,-0.035,-0.007,0.028,0.021,-0.031,0.01,0.002,-0.21,-0.084,-0.219,-0.145,0.018
0.648,-0.036,-0.011,0.025,0.023,-0.03,0.006,0.005,-0.209,-0.092,-0.227,-0.146,0.014
0.65,-0.04,-0.015,0.025,0.027,-0.032,0.005,0.005,-0.205,-0.095,-0.23,-0.15,0.015
0.652,-0.04,-0.019,0.021,0.029,-0.03,0.001,0.005,-0.205,-0.095,-0.23,-0.15,0.015
0.654,-0.043,-0.023,0.02,0.033,-0.031,-0.001,0.008,-0.202,-0.098,-0.232,-0.152,0.012
0.656,-0.046,-0.027,0.018,0.036,-0.032,-0.004,0.01,-0.199,-0.1,-0.237,-0.159,0.008
0.658,-0.045,-0.03,0.014,0.037,-0.03,-0.007,0.01,-0.2,-0.101,-0.24,-0.166,0.004
0.66,-0.045,-0.03,0.015,0.037,-0.03,-0.007,0.01,-0.2,-0.105,-0.24,-0.17,0.0
0.662,-0.049,-0.034,0.016,0.041,-0.032,-0.009,0.01,-0.196,-0.105,-0.24,-0.175,-0.004
0.664,-0.048,-0.037,0.012,0.042,-0.029,-0.012,0.013,-0.195,-0.107,-0.241,-0.174,-0.005
0.666,-0.041,-0.031,0.01,0.036,-0.025,-0.01,0.015,-0.193,-0.113,-0.252,-0.18,-0.006
0.668,-0.043,-0.034,0.009,0.038,-0.026,-0.012,0.015,-0.19,-0.114,-0.26,-0.192,-0.011
0.67,-0.06,-0.055,0.005,0.057,-0.032,-0.025,0.015,-0.19,-0.11,-0.255,-0.195,-0.015
0.672,-0.065,-0.06,0.005,0.062,-0.035,-0.027,0.014,-0.186,-0.11,-0.255,-0.195,-0.019
0.674,-0.062,-0.06,0.002,0.061,-0.032,-0.029,0.021,-0.184,-0.107,-0.256,-0.195,-0.024
0.676,-0.059,-0.06,0.0,0.06,-0.03,-0.03,0.028,-0.185,-0.104,-0.253,-0.195,-0.025
0.678,-0.06,-0.061,-0.001,0.061,-0.03,-0.031,0.03,-0.184,-0.105,-0.25,-0.195,-0.026
0.68,-0.06,-0.065,-0.005,0.063,-0.027,-0.035,0.03,-0.18,-0.105,-0.25,-0.195,-0.03
0.682,-0.06,-0.065,-0.005,0.063,-0.027,-0.035,0.034,-0.176,-0.101,-0.25,-0.195,-0.03
0.684,-0.06,-0.064,-0.004,0.063,-0.027,-0.034,0.038,-0.172,-0.1,-0.247,-0.195,-0.03
0.686,-0.06,-0.067,-0.007,0.064,-0.026,-0.037,0.042,-0.168,-0.098,-0.244,-0.195,-0.03
0.688,-0.06,-0.07,-0.01,0.065,-0.025,-0.04,0.045,-0.164,-0.094,-0.245,-0.195,-0.031
0.69,-0.06,-0.07,-0.01,0.065,-0.025,-0.04,0.045,-0.16,-0.095,-0.245,-0.195,-0.035
0.692,-0.056,-0.07,-0.014,0.063,-0.021,-0.042,0.049,-0.16,-0.096,-0.241,-0.195,-0.039
0.694,-0.055,-0.07,-0.015,0.063,-0.02,-0.042,0.05,-0.157,-0.092,-0.239,-0.195,-0.043
0.696,-0.053,-0.07,-0.017,0.062,-0.018,-0.043,0.052,-0.155,-0.09,-0.241,-0.195,-0.045
0.698,-0.05,-0.07,-0.02,0.06,-0.015,-0.045,0.055,-0.154,-0.089,-0.239,-0.195,-0.045
0.7,-0.05,-0.07,-0.02,0.06,-0.015,-0.045,0.055,-0.15,-0.085,-0.235,-0.195,-0.045
0.702,-0.046,-0.07,-0.024,0.058,-0.011,-0.047,0.055,-0.15,-0.085,-0.235,-0.195,-0.045
0.704,-0.044,-0.07,-0.026,0.058,-0.009,-0.047,0.055,-0.151,-0.086,-0.236,-0.195,-0.044
0.706,-0.046,-0.07,-0.024,0.058,-0.011,-0.047,0.057,-0.148,-0.083,-0.233,-0.195,-0.047
0.708,-0.044,-0.07,-0.026,0.057,-0.009,-0.048,0.061,-0.145,-0.08,-0.23,-0.195,-0.05
0.71,-0.04,-0.07,-0.03,0.055,-0.005,-0.05,0.065,-0.145,-0.08,-0.23,-0.195,-0.05
0.712,-0.04,-0.07,-0.03,0.055,-0.005,-0.05,0.069,-0.141,-0.08,-0.23,-0.195,-0.05
0.714,-0.037,-0.07,-0.033,0.054,-0.002,-0.051,0.07,-0.139,-0.077,-0.227,-0.195,-0.05
0.716,-0.035,-0.07,-0.035,0.053,0.0,-0.052,0.07,-0.141,-0.074,-0.224,-0.195,-0.05
0.718,-0.034,-0.07,-0.036,0.053,0.001,-0.052,0.069,-0.139,-0.075,-0.225,-0.195,-0.049
0.72,-0.03,-0.07,-0.04,0.05,0.005,-0.055,0.07,-0.135,-0.075,-0.225,-0.195,-0.045
0.722,-0.03,-0.07,-0.04,0.05,0.005,-0.055,0.082,-0.135,-0.075,-0.225,-0.195,-0.045
0.724,-0.028,-0.071,-0.043,0.05,0.008,-0.057,0.089,-0.132,-0.076,-0.228,-0.192,-0.046
0.726,-0.022,-0.067,-0.045,0.045,0.012,-0.056,0.09,-0.129,-0.073,-0.231,-0.189,-0.043
0.728,-0.03,-0.075,-0.045,0.053,0.008,-0.06,0.09,-0.13,-0.07,-0.23,-0.19,-0.04
0.73,-0.055,-0.1,-0.045,0.078,-0.005,-0.072,0.09,-0.13,-0.07,-0.23,-0.19,-0.04
0.732,-0.056,-0.093,-0.037,0.075,-0.009,-0.065,0.09,-0.126,-0.07,-0.234,-0.186,-0.04
0.734,-0.057,-0.086,-0.028,0.072,-0.014,-0.057,0.093,-0.125,-0.07,-0.235,-0.184,-0.037
0.736,-0.061,-0.084,-0.023,0.073,-0.019,-0.053,0.097,-0.125,-0.07,-0.235,-0.185,-0.034
0.738,-0.06,-0.078,-0.018,0.069,-0.021,-0.048,0.101,-0.125,-0.071,-0.234,-0.184,-0.035
0.74,-0.06,-0.07,-0.01,0.065,-0.025,-0.04,0.105,-0.125,-0.075,-0.23,-0.18,-0.035
0.742,-0.064,-0.066,-0.002,0.065,-0.031,-0.033,0.105,-0.125,-0.075,-0.23,-0.175,-0.031
0.744,-0.066,-0.062,0.004,0.063,-0.035,-0.028,0.102,-0.125,-0.075,-0.231,-0.175,-0.029
0.746,-0.063,-0.06,0.003,0.061,-0.033,-0.028,0.098,-0.125,-0.075,-0.228,-0.173,-0.031
0.748,-0.06,-0.06,0.0,0.06,-0.03,-0.03,0.095,-0.125,-0.075,-0.225,-0.17,-0.029
0.75,-0.06,-0.06,0.0,0.06,-0.03,-0.03,0.095,-0.125,-0.075,-0.225,-0.17,-0.025
0.752,-0.06,-0.06,0.0,0.06,-0.03,-0.03,0.091,-0.125,-0.075,-0.225,-0.166,-0.025
0.754,-0.061,-0.06,0.001,0.06,-0.031,-0.03,0.086,-0.128,-0.075,-0.225,-0.161,-0.026
0.756,-0.058,-0.06,-0.002,0.059,-0.028,-0.031,0.085,-0.13,-0.075,-0.223,-0.16,-0.023
0.758,-0.055,-0.06,-0.005,0.058,-0.025,-0.032,0.084,-0.131,-0.075,-0.22,-0.159,-0.02
0.76,-0.055,-0.06,-0.005,0.058,-0.025,-0.032,0.075,-0.135,-0.075,-0.22,-0.155,-0.02
0.762,-0.055,-0.06,-0.005,0.058,-0.025,-0.032,0.067,-0.139,-0.075,-0.22,-0.155,-0.02
0.764,-0.056,-0.06,-0.004,0.058,-0.026,-0.032,0.059,-0.143,-0.078,-0.217,-0.155,-0.017
0.766,-0.053,-0.06,-0.007,0.057,-0.023,-0.033,0.051,-0.147,-0.082,-0.214,-0.155,-0.014
0.768,-0.05,-0.06,-0.01,0.055,-0.02,-0.035,0.043,-0.15,-0.086,-0.215,-0.155,-0.015
0.77,-0.05,-0.06,-0.01,0.055,-0.02,-0.035,0.035,-0.15,-0.09,-0.215,-0.155,-0.015
0.772,-0.05,-0.06,-0.01,0.055,-0.02,-0.035,0.03,-0.15,-0.09,-0.215,-0.155,-0.015
0.774,-0.05,-0.06,-0.01,0.055,-0.02,-0.035,0.033,-0.15,-0.09,-0.215,-0.155,-0.018
0.776,-0.05,-0.06,-0.01,0.055,-0.02,-0.035,0.036,-0.15,-0.09,-0.215,-0.155,-0.021
0.778,-0.049,-0.06,-0.011,0.055,-0.019,-0.035,0.035,-0.15,-0.09,-0.215,-0.155,-0.02
0.78,-0.045,-0.06,-0.015,0.053,-0.015,-0.037,0.035,-0.15,-0.09,-0.215,-0.155,-0.02
0.782,-0.045,-0.06,-0.015,0.053,-0.015,-0.037,0.035,-0.154,-0.09,-0.215,-0.155,-0.02
0.784,-0.045,-0.06,-0.015,0.053,-0.015,-0.037,0.035,-0.155,-0.089,-0.215,-0.155,-0.02
0.786,-0.045,-0.06,-0.015,0.053,-0.015,-0.037,0.035,-0.155,-0.092,-0.215,-0.155,-0.02
0.788,-0.044,-0.06,-0.016,0.053,-0.014,-0.037,0.035,-0.155,-0.095,-0.215,-0.155,-0.02
0.79,-0.04,-0.06,-0.02,0.05,-0.01,-0.04,0.035,-0.155,-0.095,-0.215,-0.155,-0.02
0.792,-0.04,-0.06,-0.02,0.05,-0.01,-0.04,0.035,-0.155,-0.095,-0.215,-0.155,-0.02
0.794,-0.04,-0.06,-0.02,0.05,-0.01,-0.04,0.035,-0.154,-0.095,-0.215,-0.155,-0.019
0.796,-0.04,-0.06,-0.02,0.05,-0.01,-0.04,0.035,-0.157,-0.095,-0.215,-0.155,-0.022
0.798,-0.04,-0.06,-0.02,0.05,-0.01,-0.04,0.035,-0.16,-0.095,-0.215,-0.155,-0.025
0.8,-0.04,-0.06,-0.02,0.05,-0.01,-0.04,0.035,-0.16,-0.095,-0.215,-0.155,-0.025
0.802,-0.04,-0.064,-0.024,0.053,-0.007,-0.044,0.039,-0.164,-0.095,-0.215,-0.155,-0.025
0.804,-0.04,-0.065,-0.025,0.053,-0.007,-0.045,0.04,-0.165,-0.098,-0.215,-0.155,-0.025
0.806,-0.04,-0.065,-0.025,0.053,-0.007,-0.045,0.04,-0.165,-0.101,-0.215,-0.155,-0.025
0.808,-0.04,-0.065,-0.025,0.053,-0.007,-0.045,0.04,-0.165,-0.1,-0.216,-0.155,-0.025
0.81,-0.04,-0.065,-0.025,0.053,-0.007,-0.045,0.04,-0.165,-0.1,-0.22,-0.155,-0.025
0.812,-0.044,-0.069,-0.025,0.057,-0.009,-0.047,0.04,-0.165,-0.104,-0.221,-0.155,-0.025
0.814,-0.046,-0.071,-0.024,0.059,-0.011,-0.047,0.04,-0.165,-0.106,-0.218,-0.154,-0.025
0.816,-0.043,-0.069,-0.027,0.056,-0.008,-0.048,0.04,-0.165,-0.104,-0.226,-0.16,-0.025
0.818,-0.04,-0.071,-0.03,0.056,-0.005,-0.051,0.04,-0.165,-0.106,-0.236,-0.172,-0.026
0.82,-0.045,-0.075,-0.03,0.06,-0.007,-0.052,0.04,-0.165,-0.11,-0.235,-0.175,-0.03
0.822,-0.045,-0.075,-0.03,0.06,-0.007,-0.052,0.04,-0.165,-0.11,-0.235,-0.175,-0.03
0.824,-0.044,-0.074,-0.03,0.059,-0.007,-0.052,0.04,-0.168,-0.11,-0.235,-0.175,-0.03
0.826,-0.047,-0.077,-0.03,0.062,-0.008,-0.053,0.04,-0.171,-0.11,-0.235,-0.175,-0.03
0.828,-0.05,-0.08,-0.03,0.065,-0.01,-0.055,0.041,-0.17,-0.11,-0.235,-0.175,-0.03
0.83,-0.05,-0.08,-0.03,0.065,-0.01,-0.055,0.045,-0.17,-0.11,-0.235,-0.175,-0.03
0.832,-0.05,-0.08,-0.03,0.065,-0.01,-0.055,0.045,-0.17,-0.11,-0.235,-0.175,-0.03
0.834,-0.05,-0.08,-0.03,0.065,-0.01,-0.055,0.045,-0.17,-0.11,-0.235,-0.175,-0.03
0.836,-0.05,-0.08,-0.03,0.065,-0.01,-0.055,0.045,-0.17,-0.11,-0.235,-0.175,-0.03
0.838,-0.05,-0.08,-0.03,0.065,-0.01,-0.055,0.045,-0.17,-0.11,-0.235,-0.175,-0.03
0.84,-0.05,-0.08,-0.03,0.065,-0.01,-0.055,0.045,-0.17,-0.11,-0.235,-0.175,-0.03
0.842,-0.05,-0.08,-0.03,0.065,-0.01,-0.055,0.045,-0.17,-0.11,-0.235,-0.175,-0.034
0.844,-0.05,-0.08,-0.03,0.065,-0.01,-0.055,0.048,-0.17,-0.109,-0.235,-0.175,-0.035
0.846,-0.05,-0.08,-0.03,0.065,-0.01,-0.055,0.05,-0.17,-0.112,-0.235,-0.175,-0.035
0.848,-0.051,-0.081,-0.03,0.066,-0.01,-0.055,0.051,-0.17,-0.115,-0.235,-0.175,-0.035
0.85,-0.055,-0.085,-0.03,0.07,-0.012,-0.057,0.055,-0.17,-0.115,-0.235,-0.175,-0.035
0.852,-0.055,-0.085,-0.03,0.07,-0.012,-0.057,0.055,-0.17,-0.115,-0.235,-0.175,-0.035
0.854,-0.055,-0.085,-0.03,0.07,-0.012,-0.057,0.058,-0.17,-0.115,-0.235,-0.175,-0.035
0.856,-0.055,-0.085,-0.03,0.07,-0.012,-0.057,0.061,-0.17,-0.115,-0.235,-0.175,-0.035
0.858,-0.055,-0.085,-0.03,0.07,-0.012,-0.057,0.06,-0.17,-0.115,-0.235,-0.175,-0.035
0.86,-0.055,-0.085,-0.03,0.07,-0.012,-0.057,0.06,-0.17,-0.115,-0.235,-0.175,-0.035
0.862,-0.055,-0.085,-0.03,0.07,-0.012,-0.057,0.064,-0.17,-0.115,-0.235,-0.175,-0.035
0.864,-0.055,-0.085,-0.03,0.07,-0.012,-0.057,0.066,-0.17,-0.115,-0.235,-0.175,-0.038
0.866,-0.055,-0.085,-0.03,0.07,-0.012,-0.057,0.064,-0.17,-0.115,-0.235,-0.175,-0.04
0.868,-0.055,-0.085,-0.03,0.07,-0.012,-0.057,0.066,-0.17,-0.115,-0.235,-0.175,-0.041
0.87,-0.055,-0.085,-0.03,0.07,-0.012,-0.057,0.07,-0.17,-0.115,-0.235,-0.175,-0.045
0.872,-0.059,-0.089,-0.03,0.074,-0.015,-0.06,0.07,-0.174,-0.115,-0.235,-0.175,-0.045
0.874,-0.06,-0.09,-0.03,0.075,-0.015,-0.06,0.07,-0.178,-0.118,-0.238,-0.178,-0.048
0.876,-0.06,-0.09,-0.03,0.075,-0.015,-0.06,0.07,-0.182,-0.121,-0.242,-0.181,-0.051
0.878,-0.06,-0.09,-0.03,0.075,-0.015,-0.06,0.07,-0.185,-0.12,-0.245,-0.18,-0.05
0.88,-0.06,-0.09,-0.03,0.075,-0.015,-0.06,0.07,-0.185,-0.12,-0.245,-0.18,-0.05
0.882,-0.06,-0.09,-0.03,0.075,-0.015,-0.06,0.07,-0.185,-0.12,-0.245,-0.184,-0.05
0.884,-0.06,-0.09,-0.03,0.075,-0.015,-0.06,0.073,-0.185,-0.12,-0.245,-0.186,-0.05
0.886,-0.06,-0.09,-0.03,0.075,-0.015,-0.06,0.075,-0.185,-0.12,-0.245,-0.184,-0.05
0.888,-0.06,-0.09,-0.03,0.075,-0.015,-0.06,0.076,-0.185,-0.121,-0.246,-0.186,-0.051
0.89,-0.06,-0.09,-0.03,0.075,-0.015,-0.06,0.08,-0.185,-0.125,-0.25,-0.19,-0.055
0.892,-0.06,-0.09,-0.03,0.075,-0.015,-0.06,0.081,-0.185,-0.125,-0.25,-0.19,-0.055
0.894,-0.06,-0.09,-0.03,0.075,-0.015,-0.06,0.077,-0.185,-0.124,-0.25,-0.189,-0.055
0.896,-0.06,-0.09,-0.03,0.075,-0.015,-0.06,0.072,-0.185,-0.127,-0.25,-0.192,-0.055
0.898,-0.06,-0.09,-0.03,0.075,-0.015,-0.06,0.07,-0.185,-0.13,-0.25,-0.195,-0.055
0.9,-0.06,-0.09,-0.03,0.075,-0.015,-0.06,0.07,-0.185,-0.13,-0.25,-0.195,-0.055
0.902,-0.06,-0.09,-0.03,0.075,-0.015,-0.06,0.066,-0.188,-0.13,-0.25,-0.195,-0.055
0.904,-0.06,-0.09,-0.03,0.075,-0.015,-0.06,0.065,-0.196,-0.133,-0.25,-0.195,-0.054
0.906,-0.06,-0.09,-0.03,0.075,-0.015,-0.06,0.063,-0.203,-0.136,-0.25,-0.195,-0.057
0.908,-0.06,-0.09,-0.03,0.075,-0.015,-0.06,0.06,-0.205,-0.135,-0.25,-0.195,-0.06
0.91,-0.06,-0.09,-0.03,0.075,-0.015,-0.06,0.06,-0.205,-0.135,-0.25,-0.195,-0.06
0.912,-0.06,-0.09,-0.03,0.075,-0.015,-0.06,0.056,-0.205,-0.135,-0.25,-0.195,-0.06
0.914,-0.06,-0.09,-0.03,0.075,-0.015,-0.06,0.051,-0.208,-0.135,-0.249,-0.195,-0.06
0.916,-0.06,-0.09,-0.03,0.075,-0.015,-0.06,0.05,-0.21,-0.134,-0.255,-0.195,-0.06
0.918,-0.06,-0.09,-0.03,0.075,-0.015,-0.06,0.049,-0.21,-0.138,-0.267,-0.196,-0.06
0.92,-0.06,-0.09,-0.03,0.075,-0.015,-0.06,0.045,-0.21,-0.15,-0.27,-0.2,-0.06
0.922,-0.06,-0.09,-0.03,0.075,-0.015,-0.06,0.045,-0.206,-0.146,-0.27,-0.205,-0.059
0.924,-0.06,-0.091,-0.031,0.075,-0.015,-0.061,0.042,-0.204,-0.144,-0.273,-0.202,-0.064
0.926,-0.06,-0.088,-0.028,0.074,-0.016,-0.058,0.039,-0.206,-0.145,-0.276,-0.199,-0.064
0.928,-0.06,-0.085,-0.025,0.073,-0.017,-0.055,0.041,-0.204,-0.145,-0.274,-0.2,-0.059
0.93,-0.06,-0.085,-0.025,0.073,-0.017,-0.055,0.045,-0.2,-0.145,-0.27,-0.2,-0.06
0.932,-0.06,-0.085,-0.025,0.073,-0.017,-0.055,0.045,-0.2,-0.141,-0.27,-0.196,-0.06
0.934,-0.06,-0.085,-0.025,0.073,-0.017,-0.055,0.045,-0.2,-0.14,-0.267,-0.195,-0.06
0.936,-0.06,-0.085,-0.025,0.073,-0.017,-0.055,0.045,-0.2,-0.14,-0.265,-0.195,-0.06
0.938,-0.06,-0.085,-0.025,0.073,-0.017,-0.055,0.045,-0.199,-0.14,-0.264,-0.195,-0.06
0.94,-0.06,-0.085,-0.025,0.073,-0.017,-0.055,0.045,-0.195,-0.14,-0.26,-0.195,-0.06
0.942,-0.06,-0.085,-0.025,0.073,-0.017,-0.055,0.045,-0.195,-0.136,-0.26,-0.191,-0.06
0.944,-0.057,-0.082,-0.025,0.07,-0.016,-0.053,0.045,-0.195,-0.135,-0.257,-0.19,-0.06
0.946,-0.054,-0.079,-0.025,0.067,-0.015,-0.052,0.045,-0.195,-0.135,-0.254,-0.19,-0.06
0.948,-0.055,-0.08,-0.025,0.068,-0.015,-0.052,0.045,-0.194,-0.135,-0.255,-0.19,-0.06
0.95,-0.055,-0.08,-0.025,0.068,-0.015,-0.052,0.045,-0.19,-0.135,-0.255,-0.19,-0.06
0.952,-0.055,-0.08,-0.025,0.068,-0.015,-0.052,0.045,-0.19,-0.135,-0.251,-0.186,-0.06
0.954,-0.058,-0.08,-0.022,0.069,-0.018,-0.051,0.045,-0.191,-0.132,-0.249,-0.184,-0.06
0.956,-0.06,-0.08,-0.019,0.07,-0.02,-0.05,0.045,-0.188,-0.129,-0.251,-0.186,-0.06
0.958,-0.06,-0.08,-0.02,0.07,-0.02,-0.05,0.045,-0.185,-0.13,-0.249,-0.184,-0.06
0.96,-0.06,-0.08,-0.02,0.07,-0.02,-0.05,0.045,-0.185,-0.13,-0.245,-0.18,-0.06
0.962,-0.056,-0.076,-0.02,0.066,-0.018,-0.047,0.045,-0.185,-0.13,-0.245,-0.18,-0.06
0.964,-0.055,-0.075,-0.02,0.065,-0.017,-0.047,0.045,-0.186,-0.127,-0.246,-0.18,-0.06
0.966,-0.055,-0.075,-0.02,0.065,-0.017,-0.047,0.045,-0.183,-0.124,-0.243,-0.18,-0.06
0.968,-0.055,-0.075,-0.02,0.065,-0.017,-0.047,0.045,-0.18,-0.125,-0.24,-0.179,-0.06
0.97,-0.055,-0.075,-0.02,0.065,-0.017,-0.047,0.045,-0.18,-0.125,-0.24,-0.175,-0.06
0.972,-0.055,-0.075,-0.02,0.065,-0.017,-0.047,0.045,-0.18,-0.125,-0.24,-0.175,-0.06
0.974,-0.055,-0.075,-0.02,0.065,-0.017,-0.047,0.045,-0.18,-0.126,-0.237,-0.175,-0.06
0.976,-0.055,-0.075,-0.02,0.065,-0.017,-0.047,0.045,-0.178,-0.123,-0.234,-0.175,-0.06
0.978,-0.055,-0.075,-0.02,0.065,-0.017,-0.047,0.045,-0.175,-0.12,-0.235,-0.174,-0.06
0.98,-0.055,-0.075,-0.02,0.065,-0.017,-0.047,0.045,-0.175,-0.12,-0.235,-0.17,-0.06
0.982,-0.051,-0.071,-0.02,0.061,-0.015,-0.045,0.045,-0.175,-0.116,-0.231,-0.17,-0.056
0.984,-0.05,-0.07,-0.02,0.06,-0.015,-0.045,0.048,-0.172,-0.114,-0.229,-0.17,-0.055
0.986,-0.05,-0.07,-0.02,0.06,-0.015,-0.045,0.051,-0.169,-0.116,-0.231,-0.17,-0.055
0.988,-0.05,-0.07,-0.02,0.06,-0.015,-0.045,0.05,-0.17,-0.114,-0.229,-0.169,-0.055
0.99,-0.05,-0.07,-0.02,0.06,-0.015,-0.045,0.05,-0.17,-0.11,-0.225,-0.165,-0.055
0.992,-0.05,-0.07,-0.02,0.06,-0.015,-0.045,0.05,-0.166,-0.11,-0.225,-0.165,-0.055
0.994,-0.05,-0.07,-0.02,0.06,-0.015,-0.045,0.05,-0.164,-0.107,-0.226,-0.165,-0.052
0.996,-0.05,-0.07,-0.02,0.06,-0.015,-0.045,0.05,-0.166,-0.104,-0.223,-0.165,-0.049
0.998,-0.049,-0.069,-0.02,0.059,-0.015,-0.044,0.051,-0.164,-0.105,-0.22,-0.164,-0.05
1.0,-0.045,-0.065,-0.02,0.055,-0.012,-0.042,0.055,-0.16,-0.105,-0.22,-0.16,-0.05
1.002,-0.045,-0.065,-0.02,0.055,-0.012,-0.042,0.059,-0.16,-0.101,-0.22,-0.16,-0.05
1.004,-0.045,-0.065,-0.02,0.055,-0.012,-0.042,0.06,-0.161,-0.1,-0.221,-0.16,-0.05
1.006,-0.044,-0.065,-0.021,0.055,-0.011,-0.043,0.059,-0.158,-0.098,-0.218,-0.16,-0.05
1.008,-0.039,-0.065,-0.026,0.052,-0.006,-0.046,0.061,-0.155,-0.094,-0.215,-0.16,-0.049
1.01,-0.035,-0.065,-0.03,0.05,-0.002,-0.047,0.065,-0.155,-0.095,-0.215,-0.16,-0.045
1.012,-0.039,-0.065,-0.026,0.052,-0.006,-0.045,0.065,-0.155,-0.095,-0.215,-0.156,-0.045
1.014,-0.041,-0.066,-0.024,0.054,-0.008,-0.045,0.064,-0.152,-0.092,-0.215,-0.155,-0.045
1.016,-0.038,-0.063,-0.025,0.051,-0.006,-0.044,0.067,-0.149,-0.089,-0.213,-0.155,-0.045
1.018,-0.035,-0.06,-0.025,0.048,-0.005,-0.042,0.07,-0.15,-0.09,-0.21,-0.155,-0.045
1.02,-0.035,-0.06,-0.025,0.048,-0.005,-0.042,0.07,-0.15,-0.09,-0.21,-0.155,-0.045
1.022,-0.035,-0.06,-0.025,0.048,-0.005,-0.042,0.07,-0.146,-0.09,-0.21,-0.151,-0.041
1.024,-0.035,-0.06,-0.025,0.048,-0.005,-0.042,0.07,-0.145,-0.09,-0.207,-0.15,-0.04
1.026,-0.035,-0.06,-0.025,0.048,-0.005,-0.042,0.07,-0.145,-0.09,-0.205,-0.15,-0.04
1.028,-0.035,-0.06,-0.025,0.048,-0.005,-0.042,0.071,-0.145,-0.09,-0.205,-0.15,-0.04
1.03,-0.035,-0.06,-0.025,0.048,-0.005,-0.042,0.075,-0.145,-0.09,-0.205,-0.15,-0.04
1.032,-0.035,-0.06,-0.025,0.048,-0.005,-0.042,0.075,-0.145,-0.09,-0.205,-0.15,-0.04
1.034,-0.035,-0.06,-0.025,0.048,-0.005,-0.042,0.075,-0.145,-0.09,-0.202,-0.15,-0.039
1.036,-0.036,-0.062,-0.025,0.049,-0.005,-0.043,0.075,-0.145,-0.09,-0.199,-0.15,-0.042
1.038,-0.042,-0.066,-0.024,0.054,-0.008,-0.045,0.075,-0.145,-0.09,-0.2,-0.15,-0.045
1.04,-0.05,-0.07,-0.02,0.06,-0.015,-0.045,0.075,-0.145,-0.09,-0.2,-0.15,-0.045
1.042,-0.055,-0.074,-0.02,0.065,-0.017,-0.047,0.071,-0.145,-0.09,-0.2,-0.15,-0.045
1.044,-0.055,-0.075,-0.02,0.065,-0.017,-0.047,0.07,-0.145,-0.089,-0.203,-0.153,-0.045
1.046,-0.057,-0.077,-0.02,0.067,-0.018,-0.048,0.07,-0.145,-0.093,-0.207,-0.158,-0.047
1.048,-0.061,-0.081,-0.02,0.071,-0.02,-0.05,0.07,-0.145,-0.102,-0.211,-0.16,-0.051
1.05,-0.06,-0.08,-0.02,0.07,-0.02,-0.05,0.07,-0.145,-0.105,-0.215,-0.16,-0.055
1.052,-0.06,-0.08,-0.02,0.07,-0.02,-0.05,0.07,-0.145,-0.109,-0.215,-0.164,-0.059
1.054,-0.063,-0.083,-0.02,0.073,-0.021,-0.051,0.07,-0.145,-0.113,-0.217,-0.169,-0.06
1.056,-0.066,-0.086,-0.02,0.076,-0.022,-0.052,0.07,-0.145,-0.116,-0.222,-0.17,-0.06
1.058,-0.065,-0.085,-0.02,0.075,-0.022,-0.052,0.07,-0.145,-0.115,-0.225,-0.17,-0.06
1.06,-0.065,-0.085,-0.02,0.075,-0.022,-0.052,0.07,-0.145,-0.115,-0.225,-0.17,-0.06
1.062,-0.065,-0.085,-0.02,0.075,-0.022,-0.052,0.07,-0.145,-0.119,-0.225,-0.17,-0.06
1.064,-0.066,-0.085,-0.019,0.075,-0.023,-0.052,0.071,-0.145,-0.121,-0.225,-0.17,-0.06
1.066,-0.063,-0.085,-0.022,0.074,-0.02,-0.053,0.067,-0.146,-0.119,-0.225,-0.17,-0.06
1.068,-0.06,-0.085,-0.025,0.073,-0.017,-0.055,0.058,-0.151,-0.121,-0.225,-0.17,-0.06
1.07,-0.06,-0.085,-0.025,0.073,-0.017,-0.055,0.05,-0.155,-0.125,-0.225,-0.17,-0.06
1.072,-0.056,-0.085,-0.029,0.071,-0.013,-0.057,0.042,-0.154,-0.125,-0.225,-0.17,-0.06
1.074,-0.054,-0.085,-0.031,0.069,-0.011,-0.057,0.034,-0.161,-0.124,-0.225,-0.17,-0.06
1.076,-0.057,-0.085,-0.028,0.071,-0.014,-0.056,0.026,-0.168,-0.127,-0.225,-0.17,-0.059
1.078,-0.06,-0.085,-0.025,0.073,-0.017,-0.055,0.018,-0.17,-0.13,-0.225,-0.17,-0.054
1.08,-0.06,-0.085,-0.025,0.073,-0.017,-0.055,0.015,-0.17,-0.13,-0.225,-0.17,-0.05
1.082,-0.06,-0.085,-0.025,0.073,-0.017,-0.055,0.015,-0.174,-0.129,-0.225,-0.173,-0.057
1.084,-0.063,-0.085,-0.022,0.074,-0.02,-0.053,0.015,-0.175,-0.133,-0.227,-0.185,-0.071
1.086,-0.066,-0.085,-0.019,0.075,-0.023,-0.052,0.015,-0.175,-0.135,-0.233,-0.19,-0.074
1.088,-0.065,-0.085,-0.02,0.075,-0.022,-0.052,0.015,-0.175,-0.136,-0.234,-0.184,-0.069
1.09,-0.065,-0.085,-0.02,0.075,-0.022,-0.052,0.015,-0.175,-0.14,-0.23,-0.185,-0.07
1.092,-0.069,-0.085,-0.016,0.078,-0.026,-0.05,0.015,-0.175,-0.141,-0.23,-0.185,-0.07
1.094,-0.07,-0.084,-0.014,0.078,-0.027,-0.049,0.015,-0.175,-0.137,-0.23,-0.185,-0.07
1.096,-0.072,-0.087,-0.016,0.08,-0.028,-0.051,0.015,-0.175,-0.135,-0.23,-0.185,-0.07
1.098,-0.075,-0.09,-0.014,0.083,-0.031,-0.051,0.015,-0.175,-0.135,-0.229,-0.185,-0.07
1.1,-0.075,-0.085,-0.01,0.08,-0.032,-0.047,0.015,-0.175,-0.135,-0.225,-0.185,-0.07
1.102,-0.075,-0.085,-0.01,0.08,-0.032,-0.047,0.015,-0.175,-0.135,-0.225,-0.185,-0.07
1.104,-0.075,-0.086,-0.011,0.08,-0.032,-0.048,0.015,-0.175,-0.132,-0.225,-0.182,-0.067
1.106,-0.075,-0.083,-0.008,0.079,-0.033,-0.045,0.015,-0.174,-0.129,-0.225,-0.179,-0.064
1.108,-0.075,-0.08,-0.005,0.078,-0.035,-0.042,0.015,-0.176,-0.13,-0.224,-0.18,-0.065
1.11,-0.075,-0.08,-0.005,0.078,-0.035,-0.042,0.015,-0.18,-0.13,-0.22,-0.18,-0.065
1.112,-0.075,-0.08,-0.005,0.078,-0.035,-0.042,0.015,-0.179,-0.13,-0.22,-0.18,-0.065
1.114,-0.075,-0.077,-0.002,0.076,-0.036,-0.039,0.015,-0.19,-0.127,-0.22,-0.18,-0.065
1.116,-0.075,-0.074,0.001,0.075,-0.037,-0.036,0.015,-0.195,-0.124,-0.22,-0.18,-0.065
1.118,-0.075,-0.075,0.0,0.075,-0.037,-0.037,0.015,-0.189,-0.125,-0.22,-0.18,-0.065
1.12,-0.075,-0.075,0.0,0.075,-0.037,-0.037,0.015,-0.19,-0.125,-0.22,-0.18,-0.065
1.122,-0.075,-0.071,0.004,0.073,-0.04,-0.033,0.015,-0.191,-0.125,-0.216,-0.176,-0.061
1.124,-0.075,-0.069,0.005,0.072,-0.04,-0.032,0.015,-0.187,-0.126,-0.215,-0.175,-0.06
1.126,-0.075,-0.071,0.005,0.072,-0.04,-0.032,0.015,-0.185,-0.123,-0.215,-0.175,-0.06
1.128,-0.074,-0.069,0.005,0.071,-0.04,-0.032,0.015,-0.185,-0.12,-0.215,-0.175,-0.06
1.13,-0.07,-0.065,0.005,0.067,-0.037,-0.03,0.015,-0.185,-0.12,-0.215,-0.175,-0.06
1.132,-0.066,-0.065,0.001,0.065,-0.033,-0.032,0.015,-0.185,-0.12,-0.211,-0.175,-0.06
1.134,-0.065,-0.066,0.0,0.065,-0.032,-0.032,0.014,-0.182,-0.121,-0.21,-0.175,-0.06
1.136,-0.063,-0.063,0.0,0.063,-0.031,-0.031,0.017,-0.179,-0.118,-0.21,-0.175,-0.06
1.138,-0.059,-0.06,0.0,0.059,-0.03,-0.03,0.02,-0.18,-0.115,-0.21,-0.175,-0.06
1.14,-0.06,-0.06,0.0,0.06,-0.03,-0.03,0.02,-0.18,-0.115,-0.21,-0.175,-0.06
1.142,-0.061,-0.06,0.0,0.061,-0.031,-0.03,0.02,-0.176,-0.115,-0.21,-0.171,-0.06
1.144,-0.054,-0.057,-0.003,0.056,-0.025,-0.03,0.023,-0.175,-0.115,-0.207,-0.17,-0.06
1.146,-0.049,-0.054,-0.006,0.052,-0.021,-0.03,0.026,-0.175,-0.115,-0.204,-0.17,-0.06
1.148,-0.05,-0.055,-0.005,0.053,-0.022,-0.03,0.025,-0.175,-0.114,-0.205,-0.17,-0.06
1.15,-0.05,-0.055,-0.005,0.053,-0.022,-0.03,0.025,-0.175,-0.11,-0.205,-0.17,-0.06
1.152,-0.05,-0.055,-0.005,0.053,-0.022,-0.03,0.029,-0.171,-0.11,-0.201,-0.17,-0.06
1.154,-0.053,-0.058,-0.005,0.056,-0.024,-0.031,0.03,-0.17,-0.11,-0.199,-0.17,-0.06
1.156,-0.056,-0.061,-0.005,0.059,-0.026,-0.032,0.032,-0.17,-0.11,-0.201,-0.17,-0.06
1.158,-0.054,-0.06,-0.006,0.057,-0.024,-0.032,0.035,-0.17,-0.11,-0.199,-0.17,-0.06
1.16,-0.05,-0.06,-0.01,0.055,-0.02,-0.035,0.035,-0.17,-0.11,-0.195,-0.17,-0.06
1.162,-0.05,-0.06,-0.01,0.055,-0.02,-0.035,0.039,-0.166,-0.106,-0.195,-0.17,-0.06
1.164,-0.05,-0.059,-0.01,0.055,-0.02,-0.035,0.043,-0.162,-0.105,-0.196,-0.17,-0.06
1.166,-0.052,-0.062,-0.01,0.057,-0.021,-0.036,0.047,-0.158,-0.105,-0.193,-0.17,-0.06
1.168,-0.056,-0.065,-0.01,0.061,-0.022,-0.037,0.05,-0.154,-0.105,-0.19,-0.169,-0.06
1.17,-0.055,-0.065,-0.01,0.06,-0.022,-0.037,0.05,-0.15,-0.105,-0.19,-0.165,-0.06
1.172,-0.051,-0.065,-0.014,0.058,-0.018,-0.039,0.054,-0.146,-0.105,-0.19,-0.165,-0.06
1.174,-0.05,-0.065,-0.015,0.058,-0.017,-0.04,0.055,-0.141,-0.106,-0.187,-0.165,-0.06
1.176,-0.05,-0.065,-0.015,0.058,-0.017,-0.04,0.057,-0.141,-0.103,-0.184,-0.165,-0.06
1.178,-0.051,-0.066,-0.015,0.059,-0.017,-0.04,0.06,-0.146,-0.1,-0.185,-0.165,-0.06
1.18,-0.055,-0.07,-0.015,0.063,-0.02,-0.042,0.06,-0.145,-0.1,-0.185,-0.165,-0.06
1.182,-0.055,-0.07,-0.015,0.063,-0.02,-0.042,0.06,-0.145,-0.1,-0.181,-0.165,-0.06
1.184,-0.055,-0.07,-0.014,0.063,-0.02,-0.042,0.06,-0.145,-0.1,-0.179,-0.165,-0.06
1.186,-0.053,-0.07,-0.017,0.062,-0.018,-0.043,0.061,-0.145,-0.1,-0.181,-0.165,-0.06
1.188,-0.05,-0.07,-0.02,0.06,-0.015,-0.045,0.066,-0.145,-0.099,-0.179,-0.165,-0.06
1.19,-0.05,-0.07,-0.02,0.06,-0.015,-0.045,0.07,-0.145,-0.095,-0.175,-0.165,-0.06
1.192,-0.05,-0.07,-0.02,0.06,-0.015,-0.045,0.066,-0.145,-0.095,-0.175,-0.165,-0.06
1.194,-0.05,-0.07,-0.02,0.06,-0.015,-0.045,0.065,-0.145,-0.095,-0.175,-0.164,-0.06
1.196,-0.051,-0.07,-0.02,0.06,-0.015,-0.045,0.063,-0.145,-0.095,-0.175,-0.167,-0.06
1.198,-0.049,-0.07,-0.021,0.059,-0.014,-0.045,0.059,-0.145,-0.095,-0.176,-0.17,-0.06
1.2,-0.045,-0.07,-0.025,0.058,-0.01,-0.047,0.06,-0.145,-0.095,-0.18,-0.17,-0.06
1.202,-0.049,-0.074,-0.025,0.062,-0.011,-0.05,0.061,-0.145,-0.095,-0.18,-0.17,-0.06
1.204,-0.051,-0.075,-0.025,0.063,-0.012,-0.05,0.057,-0.145,-0.098,-0.18,-0.17,-0.06
1.206,-0.05,-0.075,-0.025,0.063,-0.012,-0.05,0.055,-0.145,-0.1,-0.18,-0.17,-0.06
1.208,-0.05,-0.075,-0.025,0.063,-0.012,-0.05,0.054,-0.145,-0.101,-0.181,-0.17,-0.06
1.21,-0.05,-0.075,-0.025,0.063,-0.012,-0.05,0.05,-0.145,-0.105,-0.185,-0.17,-0.06
1.212,-0.05,-0.075,-0.025,0.063,-0.012,-0.05,0.05,-0.145,-0.109,-0.185,-0.17,-0.064
1.214,-0.047,-0.075,-0.028,0.061,-0.009,-0.051,0.051,-0.145,-0.114,-0.188,-0.169,-0.065
1.216,-0.044,-0.075,-0.031,0.06,-0.006,-0.052,0.048,-0.145,-0.115,-0.191,-0.175,-0.067
1.218,-0.045,-0.075,-0.03,0.06,-0.007,-0.052,0.045,-0.145,-0.116,-0.19,-0.187,-0.07
1.22,-0.045,-0.075,-0.03,0.06,-0.007,-0.052,0.045,-0.145,-0.12,-0.19,-0.19,-0.07
1.222,-0.045,-0.075,-0.03,0.06,-0.007,-0.052,0.041,-0.145,-0.12,-0.19,-0.19,-0.07
1.224,-0.042,-0.072,-0.029,0.057,-0.006,-0.051,0.039,-0.145,-0.12,-0.19,-0.19,-0.07
1.226,-0.038,-0.069,-0.032,0.054,-0.003,-0.051,0.041,-0.145,-0.12,-0.19,-0.19,-0.07
1.228,-0.035,-0.07,-0.035,0.053,0.0,-0.052,0.039,-0.145,-0.12,-0.19,-0.19,-0.07
1.23,-0.035,-0.07,-0.035,0.053,0.0,-0.052,0.035,-0.145,-0.12,-0.19,-0.19,-0.07
1.232,-0.035,-0.07,-0.035,0.053,0.0,-0.052,0.035,-0.149,-0.124,-0.19,-0.19,-0.07
1.234,-0.035,-0.07,-0.035,0.053,0.0,-0.052,0.036,-0.151,-0.125,-0.19,-0.189,-0.07
1.236,-0.035,-0.07,-0.035,0.053,0.0,-0.052,0.033,-0.149,-0.125,-0.19,-0.192,-0.07
1.238,-0.035,-0.07,-0.035,0.053,0.0,-0.052,0.03,-0.151,-0.125,-0.19,-0.195,-0.07
1.24,-0.035,-0.07,-0.035,0.053,0.0,-0.052,0.03,-0.155,-0.125,-0.19,-0.195,-0.07
1.242,-0.035,-0.07,-0.035,0.053,0.0,-0.052,0.026,-0.155,-0.125,-0.19,-0.195,-0.074
1.244,-0.036,-0.07,-0.035,0.054,0.0,-0.052,0.025,-0.157,-0.126,-0.191,-0.195,-0.075
1.246,-0.033,-0.069,-0.036,0.051,0.002,-0.052,0.024,-0.148,-0.123,-0.188,-0.195,-0.077
1.248,-0.031,-0.073,-0.042,0.052,0.006,-0.057,0.019,-0.132,-0.129,-0.193,-0.195,-0.08
1.25,-0.035,-0.09,-0.055,0.063,0.01,-0.072,0.02,-0.12,-0.145,-0.21,-0.195,-0.08
1.252,-0.031,-0.106,-0.075,0.069,0.022,-0.091,0.032,-0.103,-0.141,-0.21,-0.194,-0.099
1.254,-0.028,-0.121,-0.093,0.075,0.033,-0.107,0.042,-0.094,-0.144,-0.213,-0.203,-0.117
1.256,-0.019,-0.141,-0.122,0.08,0.051,-0.131,0.064,-0.067,-0.124,-0.197,-0.2,-0.12
1.258,-0.008,-0.148,-0.14,0.078,0.066,-0.144,0.089,-0.018,-0.08,-0.163,-0.19,-0.122
1.26,-0.005,-0.13,-0.125,0.068,0.06,-0.127,0.09,0.02,-0.045,-0.13,-0.18,-0.12
1.262,-0.002,-0.119,-0.117,0.061,0.058,-0.118,0.092,0.051,0.012,-0.065,-0.117,-0.081
1.264,0.009,-0.097,-0.106,0.044,0.058,-0.101,0.111,0.096,0.086,0.019,-0.057,-0.043
1.266,0.019,-0.077,-0.096,0.029,0.058,-0.086,0.106,0.139,0.163,0.115,0.021,0.015
1.268,0.038,-0.05,-0.088,0.006,0.063,-0.069,0.08,0.139,0.231,0.231,0.153,0.121
1.27,0.09,0.015,-0.075,-0.052,0.082,-0.03,0.055,0.08,0.295,0.37,0.33,0.275
1.272,0.161,0.097,-0.065,-0.129,0.112,0.016,-0.029,-0.007,0.362,0.525,0.541,0.468
1.274,0.235,0.157,-0.078,-0.196,0.157,0.039,-0.135,-0.132,0.362,0.65,0.752,0.645
1.276,0.319,0.203,-0.116,-0.261,0.218,0.043,-0.231,-0.247,0.332,0.747,0.942,0.819
1.278,0.414,0.253,-0.16,-0.334,0.287,0.046,-0.325,-0.34,0.316,0.846,1.138,1.009
1.28,0.515,0.305,-0.21,-0.41,0.362,0.047,-0.435,-0.45,0.27,0.95,1.37,1.21
1.282,0.641,0.348,-0.293,-0.494,0.467,0.027,-0.573,-0.586,0.127,1.011,1.593,1.425
1.284,0.778,0.406,-0.372,-0.592,0.575,0.017,-0.76,-0.792,-0.105,0.998,1.79,1.651
1.286,0.909,0.506,-0.403,-0.707,0.656,0.051,-0.937,-0.99,-0.314,0.97,1.984,1.893
1.288,1.039,0.621,-0.417,-0.83,0.727,0.102,-1.089,-1.133,-0.486,0.936,2.148,2.114
1.29,1.155,0.705,-0.45,-0.93,0.802,0.127,-1.24,-1.255,-0.69,0.825,2.195,2.25
1.292,1.202,0.762,-0.439,-0.982,0.82,0.162,-1.337,-1.356,-0.884,0.626,2.098,2.278
1.294,1.237,0.807,-0.43,-1.021,0.834,0.188,-1.401,-1.449,-1.025,0.438,1.968,2.25
1.296,1.202,0.791,-0.411,-0.996,0.806,0.19,-1.441,-1.51,-1.1,0.271,1.786,2.141
1.298,1.111,0.732,-0.378,-0.921,0.744,0.177,-1.431,-1.562,-1.148,0.057,1.48,1.911
1.3,1.03,0.68,-0.35,-0.855,0.69,0.165,-1.36,-1.635,-1.215,-0.23,1.06,1.585
1.302,0.863,0.577,-0.286,-0.719,0.574,0.146,-1.246,-1.66,-1.277,-0.513,0.613,1.227
1.304,0.646,0.451,-0.196,-0.548,0.42,0.127,-1.088,-1.61,-1.246,-0.801,0.139,0.827
1.306,0.459,0.384,-0.075,-0.421,0.266,0.154,-0.928,-1.513,-1.197,-0.965,-0.196,0.52
1.308,0.307,0.372,0.064,-0.339,0.121,0.217,-0.776,-1.374,-1.116,-0.941,-0.316,0.356
1.31,0.175,0.345,0.17,-0.26,0.002,0.257,-0.62,-1.19,-0.935,-0.825,-0.325,0.255
1.312,0.109,0.306,0.197,-0.208,-0.044,0.251,-0.496,-1.016,-0.795,-0.715,-0.302,0.206
1.314,0.079,0.263,0.184,-0.172,-0.053,0.223,-0.399,-0.859,-0.674,-0.619,-0.277,0.157
1.316,0.064,0.232,0.169,-0.148,-0.053,0.201,-0.327,-0.731,-0.56,-0.535,-0.253,0.123
1.318,0.06,0.216,0.156,-0.138,-0.048,0.186,-0.271,-0.631,-0.461,-0.462,-0.229,0.113
1.32,0.055,0.195,0.14,-0.125,-0.043,0.167,-0.215,-0.54,-0.375,-0.395,-0.21,0.095
1.322,0.027,0.156,0.129,-0.092,-0.052,0.142,-0.159,-0.456,-0.31,-0.335,-0.206,0.056
1.324,0.01,0.116,0.106,-0.063,-0.049,0.111,-0.106,-0.374,-0.248,-0.275,-0.202,0.016
1.326,-0.003,0.071,0.074,-0.034,-0.039,0.072,-0.053,-0.299,-0.198,-0.234,-0.2,-0.015
1.328,-0.036,0.016,0.051,0.009,-0.043,0.033,0.005,-0.235,-0.159,-0.208,-0.199,-0.042
1.33,-0.075,-0.03,0.045,0.052,-0.06,0.007,0.06,-0.175,-0.12,-0.18,-0.195,-0.065
1.332,-0.081,-0.044,0.037,0.062,-0.058,-0.004,0.09,-0.111,-0.106,-0.171,-0.195,-0.074
1.334,-0.08,-0.048,0.032,0.064,-0.056,-0.008,0.105,-0.09,-0.099,-0.167,-0.193,-0.078
1.336,-0.079,-0.052,0.027,0.065,-0.052,-0.012,0.115,-0.087,-0.091,-0.163,-0.187,-0.082
1.338,-0.074,-0.056,0.018,0.065,-0.045,-0.019,0.121,-0.078,-0.083,-0.158,-0.185,-0.086
1.34,-0.07,-0.06,0.01,0.065,-0.04,-0.025,0.125,-0.07,-0.075,-0.15,-0.185,-0.09
1.342,-0.07,-0.064,0.006,0.066,-0.037,-0.029,0.13,-0.062,-0.067,-0.146,-0.181,-0.089
1.344,-0.073,-0.071,0.002,0.072,-0.037,-0.034,0.127,-0.054,-0.059,-0.142,-0.18,-0.099
1.346,-0.077,-0.078,0.0,0.078,-0.038,-0.039,0.124,-0.046,-0.053,-0.138,-0.178,-0.109
1.348,-0.08,-0.08,0.0,0.08,-0.04,-0.04,0.125,-0.039,-0.049,-0.134,-0.175,-0.11
1.35,-0.08,-0.08,0.0,0.08,-0.04,-0.04,0.125,-0.035,-0.045,-0.13,-0.175,-0.11
1.352,-0.08,-0.08,0.0,0.08,-0.04,-0.04,0.125,-0.031,-0.041,-0.13,-0.175,-0.11
1.354,-0.081,-0.08,0.001,0.08,-0.041,-0.04,0.125,-0.026,-0.04,-0.128,-0.176,-0.11
1.356,-0.078,-0.08,-0.002,0.079,-0.038,-0.041,0.125,-0.025,-0.039,-0.122,-0.173,-0.11
1.358,-0.075,-0.081,-0.005,0.079,-0.035,-0.043,0.125,-0.024,-0.034,-0.12,-0.17,-0.11
1.36,-0.08,-0.085,-0.005,0.083,-0.037,-0.045,0.125,-0.02,-0.03,-0.12,-0.17,-0.11
1.362,-0.08,-0.085,-0.005,0.083,-0.037,-0.045,0.125,-0.016,-0.03,-0.116,-0.17,-0.11
1.364,-0.08,-0.085,-0.005,0.083,-0.037,-0.045,0.125,-0.015,-0.028,-0.111,-0.171,-0.11
1.366,-0.08,-0.085,-0.005,0.083,-0.037,-0.045,0.125,-0.014,-0.022,-0.11,-0.168,-0.11
1.368,-0.08,-0.085,-0.005,0.083,-0.037,-0.045,0.125,-0.009,-0.02,-0.109,-0.165,-0.11
1.37,-0.08,-0.085,-0.005,0.083,-0.037,-0.045,0.125,-0.005,-0.02,-0.105,-0.165,-0.11
1.372,-0.076,-0.085,-0.009,0.08,-0.033,-0.047,0.121,-0.005,-0.016,-0.105,-0.165,-0.11
1.374,-0.075,-0.085,-0.01,0.08,-0.032,-0.047,0.12,-0.002,-0.014,-0.103,-0.165,-0.11
1.376,-0.075,-0.085,-0.01,0.08,-0.032,-0.047,0.12,0.0,-0.016,-0.097,-0.165,-0.11
1.378,-0.075,-0.085,-0.01,0.08,-0.032,-0.047,0.12,0.001,-0.014,-0.095,-0.164,-0.11
1.38,-0.075,-0.085,-0.01,0.08,-0.032,-0.047,0.12,0.005,-0.01,-0.095,-0.16,-0.11
1.382,-0.075,-0.085,-0.01,0.08,-0.032,-0.047,0.12,0.005,-0.01,-0.091,-0.16,-0.11
1.384,-0.072,-0.085,-0.013,0.079,-0.029,-0.049,0.12,0.004,-0.011,-0.09,-0.16,-0.11
1.386,-0.069,-0.085,-0.016,0.078,-0.026,-0.05,0.12,0.007,-0.008,-0.088,-0.16,-0.11
1.388,-0.07,-0.085,-0.015,0.078,-0.027,-0.05,0.12,0.01,-0.005,-0.085,-0.159,-0.11
1.39,-0.07,-0.085,-0.015,0.078,-0.027,-0.05,0.12,0.01,-0.005,-0.085,-0.155,-0.11
1.392,-0.07,-0.085,-0.015,0.078,-0.027,-0.05,0.12,0.014,-0.005,-0.081,-0.155,-0.11
1.394,-0.07,-0.085,-0.015,0.078,-0.027,-0.05,0.12,0.016,-0.002,-0.08,-0.155,-0.11
1.396,-0.07,-0.085,-0.015,0.078,-0.027,-0.05,0.12,0.014,0.001,-0.078,-0.155,-0.11
1.398,-0.071,-0.085,-0.014,0.078,-0.028,-0.049,0.121,0.016,0.0,-0.074,-0.155,-0.11
1.4,-0.075,-0.085,-0.01,0.08,-0.032,-0.047,0.125,0.02,0.0,-0.075,-0.155,-0.11
1.402,-0.075,-0.085,-0.01,0.08,-0.032,-0.047,0.125,0.02,0.004,-0.076,-0.16,-0.114
1.404,-0.077,-0.084,-0.007,0.081,-0.035,-0.045,0.128,0.023,0.006,-0.072,-0.159,-0.114
1.406,-0.084,-0.089,-0.005,0.087,-0.039,-0.047,0.131,0.026,0.004,-0.07,-0.166,-0.119
1.408,-0.091,-0.095,-0.004,0.093,-0.043,-0.05,0.13,0.025,0.006,-0.069,-0.176,-0.126
1.41,-0.09,-0.09,0.0,0.09,-0.045,-0.045,0.13,0.025,0.01,-0.065,-0.17,-0.125
1.412,-0.086,-0.086,0.0,0.086,-0.043,-0.042,0.134,0.029,0.011,-0.065,-0.166,-0.123
1.414,-0.081,-0.082,-0.001,0.081,-0.04,-0.041,0.136,0.031,0.008,-0.062,-0.162,-0.135
1.416,-0.082,-0.08,0.002,0.081,-0.042,-0.039,0.134,0.029,0.015,-0.059,-0.158,-0.139
1.418,-0.085,-0.079,0.005,0.082,-0.045,-0.037,0.136,0.032,0.028,-0.06,-0.154,-0.127
1.42,-0.08,-0.075,0.005,0.077,-0.042,-0.035,0.14,0.04,0.035,-0.06,-0.15,-0.12
1.422,-0.08,-0.071,0.009,0.075,-0.044,-0.031,0.143,0.043,0.043,-0.052,-0.15,-0.116
1.424,-0.08,-0.07,0.01,0.075,-0.045,-0.03,0.154,0.057,0.05,-0.043,-0.148,-0.11
1.426,-0.08,-0.069,0.012,0.074,-0.046,-0.029,0.163,0.069,0.062,-0.038,-0.142,-0.101
1.428,-0.079,-0.064,0.016,0.071,-0.047,-0.024,0.165,0.07,0.071,-0.033,-0.14,-0.094
1.43,-0.075,-0.06,0.015,0.067,-0.045,-0.022,0.165,0.07,0.07,-0.025,-0.14,-0.09
1.432,-0.073,-0.059,0.013,0.066,-0.043,-0.023,0.165,0.074,0.07,-0.017,-0.136,-0.086
1.434,-0.091,-0.063,0.027,0.076,-0.059,-0.018,0.165,0.075,0.07,-0.012,-0.135,-0.085
1.436,-0.103,-0.066,0.037,0.084,-0.069,-0.014,0.165,0.077,0.071,-0.008,-0.134,-0.085
1.438,-0.099,-0.065,0.035,0.082,-0.066,-0.015,0.165,0.08,0.069,-0.004,-0.129,-0.085
1.44,-0.1,-0.065,0.035,0.082,-0.067,-0.015,0.165,0.08,0.065,0.0,-0.125,-0.085
1.442,-0.1,-0.065,0.035,0.082,-0.067,-0.015,0.169,0.092,0.08,0.004,-0.125,-0.085
1.444,-0.099,-0.064,0.035,0.081,-0.067,-0.015,0.173,0.099,0.096,0.008,-0.122,-0.085
1.446,-0.102,-0.067,0.035,0.084,-0.068,-0.016,0.176,0.102,0.101,0.012,-0.12,-0.085
1.448,-0.105,-0.07,0.035,0.087,-0.07,-0.017,0.183,0.114,0.1,0.016,-0.119,-0.085
1.45,-0.105,-0.07,0.035,0.087,-0.07,-0.017,0.195,0.13,0.1,0.02,-0.115,-0.085
1.452,-0.105,-0.07,0.035,0.087,-0.07,-0.017,0.2,0.131,0.1,0.024,-0.111,-0.085
1.454,-0.105,-0.07,0.035,0.087,-0.07,-0.017,0.2,0.129,0.1,0.025,-0.107,-0.085
1.456,-0.105,-0.07,0.035,0.087,-0.07,-0.017,0.202,0.133,0.101,0.027,-0.105,-0.085
1.458,-0.104,-0.069,0.035,0.086,-0.07,-0.017,0.205,0.142,0.107,0.03,-0.104,-0.085
1.46,-0.1,-0.065,0.035,0.082,-0.067,-0.015,0.205,0.15,0.115,0.03,-0.1,-0.085
1.462,-0.1,-0.065,0.035,0.082,-0.067,-0.015,0.209,0.158,0.123,0.038,-0.096,-0.085
1.464,-0.101,-0.066,0.035,0.083,-0.067,-0.015,0.21,0.166,0.128,0.044,-0.095,-0.085
1.466,-0.098,-0.063,0.035,0.08,-0.066,-0.014,0.211,0.175,0.133,0.046,-0.094,-0.085
1.468,-0.095,-0.06,0.035,0.077,-0.065,-0.012,0.218,0.19,0.144,0.052,-0.089,-0.085
1.47,-0.095,-0.06,0.035,0.077,-0.065,-0.012,0.23,0.21,0.16,0.065,-0.085,-0.085
1.472,-0.095,-0.06,0.035,0.077,-0.065,-0.012,0.235,0.224,0.165,0.074,-0.085,-0.085
1.474,-0.092,-0.057,0.035,0.074,-0.063,-0.011,0.234,0.224,0.163,0.078,-0.082,-0.085
1.476,-0.089,-0.054,0.035,0.071,-0.062,-0.01,0.238,0.23,0.172,0.082,-0.08,-0.085
1.478,-0.09,-0.055,0.035,0.072,-0.062,-0.01,0.246,0.242,0.188,0.085,-0.079,-0.085
1.48,-0.09,-0.055,0.035,0.072,-0.062,-0.01,0.25,0.245,0.19,0.085,-0.075,-0.085
1.482,-0.086,-0.051,0.035,0.068,-0.06,-0.007,0.255,0.25,0.19,0.089,-0.075,-0.085
1.484,-0.084,-0.049,0.035,0.066,-0.06,-0.007,0.254,0.248,0.188,0.092,-0.072,-0.086
1.486,-0.086,-0.051,0.035,0.068,-0.06,-0.007,0.261,0.259,0.196,0.1,-0.07,-0.083
1.488,-0.084,-0.049,0.035,0.066,-0.059,-0.007,0.27,0.278,0.215,0.114,-0.069,-0.08
1.49,-0.08,-0.045,0.035,0.062,-0.057,-0.005,0.265,0.28,0.23,0.125,-0.06,-0.08
1.492,-0.084,-0.045,0.039,0.064,-0.061,-0.002,0.265,0.288,0.235,0.124,-0.056,-0.08
1.494,-0.086,-0.046,0.041,0.066,-0.063,-0.002,0.262,0.292,0.237,0.136,-0.053,-0.081
1.496,-0.083,-0.043,0.039,0.063,-0.061,-0.001,0.259,0.301,0.245,0.153,-0.046,-0.078
1.498,-0.08,-0.04,0.041,0.06,-0.061,0.001,0.26,0.312,0.258,0.161,-0.039,-0.075
1.5,-0.085,-0.04,0.045,0.062,-0.065,0.002,0.26,0.315,0.265,0.165,-0.035,-0.075
1.502,-0.086,-0.04,0.045,0.063,-0.066,0.002,0.256,0.319,0.272,0.172,-0.031,-0.075
1.504,-0.082,-0.037,0.044,0.059,-0.063,0.003,0.254,0.325,0.29,0.185,-0.027,-0.076
1.506,-0.08,-0.033,0.047,0.056,-0.063,0.007,0.256,0.336,0.305,0.192,-0.025,-0.073
1.508,-0.079,-0.029,0.05,0.054,-0.064,0.011,0.254,0.347,0.313,0.197,-0.025,-0.07
1.51,-0.075,-0.025,0.05,0.05,-0.062,0.012,0.25,0.35,0.325,0.21,-0.025,-0.07
1.512,-0.083,-0.025,0.058,0.054,-0.07,0.016,0.25,0.354,0.329,0.219,-0.025,-0.07
1.514,-0.089,-0.023,0.067,0.056,-0.078,0.022,0.251,0.358,0.333,0.224,-0.026,-0.07
1.516,-0.09,-0.017,0.072,0.053,-0.081,0.028,0.248,0.362,0.337,0.225,-0.023,-0.07
1.518,-0.091,-0.015,0.076,0.052,-0.083,0.03,0.245,0.366,0.341,0.226,-0.02,-0.069
1.52,-0.095,-0.015,0.08,0.055,-0.087,0.032,0.245,0.37,0.345,0.23,-0.02,-0.065
1.522,-0.096,-0.011,0.084,0.053,-0.09,0.036,0.241,0.37,0.349,0.234,-0.02,-0.065
1.524,-0.091,-0.006,0.085,0.048,-0.088,0.039,0.239,0.373,0.35,0.24,-0.02,-0.065
1.526,-0.091,-0.005,0.086,0.048,-0.088,0.041,0.241,0.376,0.351,0.237,-0.02,-0.065
1.528,-0.096,-0.004,0.091,0.05,-0.093,0.043,0.239,0.374,0.357,0.238,-0.02,-0.064
1.53,-0.095,0.0,0.095,0.047,-0.095,0.047,0.235,0.37,0.365,0.255,-0.02,-0.06
1.532,-0.095,0.004,0.099,0.045,-0.097,0.051,0.235,0.37,0.361,0.252,-0.016,-0.06
1.534,-0.098,0.008,0.106,0.045,-0.102,0.057,0.236,0.367,0.357,0.25,-0.015,-0.06
1.536,-0.101,0.012,0.113,0.044,-0.107,0.063,0.233,0.365,0.353,0.248,-0.015,-0.06
1.538,-0.099,0.016,0.115,0.041,-0.107,0.065,0.23,0.364,0.35,0.245,-0.015,-0.06
1.54,-0.095,0.02,0.115,0.037,-0.105,0.067,0.23,0.36,0.35,0.245,-0.015,-0.06
1.542,-0.099,0.02,0.119,0.04,-0.109,0.069,0.23,0.36,0.346,0.241,-0.015,-0.056
1.544,-0.099,0.022,0.121,0.038,-0.11,0.071,0.227,0.355,0.341,0.24,-0.012,-0.054
1.546,-0.09,0.028,0.118,0.031,-0.104,0.072,0.223,0.346,0.34,0.238,-0.009,-0.056
1.548,-0.085,0.03,0.115,0.027,-0.1,0.072,0.219,0.338,0.34,0.235,-0.01,-0.054
1.55,-0.085,0.03,0.115,0.027,-0.1,0.072,0.215,0.33,0.335,0.235,-0.01,-0.05
1.552,-0.077,0.034,0.111,0.021,-0.094,0.072,0.211,0.322,0.33,0.231,-0.01,-0.05
1.554,-0.074,0.036,0.11,0.019,-0.093,0.073,0.207,0.314,0.332,0.231,-0.01,-0.051
1.556,-0.075,0.033,0.108,0.021,-0.092,0.07,0.204,0.307,0.323,0.225,-0.01,-0.048
1.558,-0.075,0.03,0.105,0.022,-0.09,0.067,0.198,0.297,0.306,0.212,-0.011,-0.045
1.56,-0.075,0.03,0.105,0.022,-0.09,0.067,0.185,0.28,0.295,0.205,-0.015,-0.045
1.562,-0.07,0.03,0.101,0.02,-0.085,0.066,0.177,0.264,0.283,0.197,-0.019,-0.045
1.564,-0.073,0.027,0.1,0.023,-0.087,0.063,0.169,0.248,0.272,0.189,-0.023,-0.046
1.566,-0.074,0.025,0.098,0.024,-0.086,0.061,0.161,0.232,0.257,0.181,-0.027,-0.041
1.568,-0.07,0.025,0.095,0.022,-0.083,0.06,0.153,0.215,0.242,0.173,-0.03,-0.034
1.57,-0.07,0.025,0.095,0.022,-0.083,0.06,0.145,0.195,0.23,0.165,-0.03,-0.03
1.572,-0.062,0.029,0.091,0.016,-0.077,0.06,0.137,0.179,0.214,0.157,-0.03,-0.022
1.574,-0.056,0.031,0.087,0.012,-0.072,0.059,0.126,0.16,0.201,0.149,-0.03,-0.017
1.576,-0.039,0.043,0.083,-0.003,-0.061,0.063,0.115,0.142,0.189,0.141,-0.03,-0.011
1.578,-0.024,0.056,0.08,-0.016,-0.052,0.067,0.108,0.126,0.177,0.133,-0.03,-0.004
1.58,-0.03,0.05,0.08,-0.01,-0.055,0.065,0.1,0.11,0.165,0.125,-0.03,0.0
1.582,-0.026,0.05,0.076,-0.012,-0.051,0.063,0.092,0.098,0.152,0.117,-0.03,0.004
1.584,-0.024,0.047,0.071,-0.012,-0.048,0.059,0.084,0.086,0.145,0.112,-0.03,0.005
1.586,-0.025,0.045,0.07,-0.01,-0.048,0.057,0.076,0.074,0.133,0.107,-0.03,0.007
1.588,-0.025,0.044,0.069,-0.01,-0.048,0.056,0.068,0.062,0.116,0.098,-0.03,0.011
1.59,-0.025,0.04,0.065,-0.008,-0.045,0.052,0.065,0.05,0.105,0.09,-0.03,0.01
1.592,-0.02,0.04,0.06,-0.01,-0.04,0.05,0.065,0.038,0.093,0.082,-0.029,0.006
1.594,-0.023,0.037,0.06,-0.007,-0.042,0.048,0.065,0.029,0.081,0.074,-0.039,0.001
1.596,-0.024,0.034,0.058,-0.005,-0.041,0.046,0.065,0.02,0.069,0.066,-0.047,0.0
1.598,-0.019,0.035,0.055,-0.009,-0.038,0.045,0.065,0.007,0.058,0.058,-0.044,-0.001
1.6,-0.02,0.035,0.055,-0.008,-0.038,0.045,0.065,-0.005,0.05,0.05,-0.045,-0.005
1.602,-0.02,0.031,0.051,-0.005,-0.036,0.041,0.065,-0.013,0.042,0.042,-0.053,-0.005
1.604,-0.02,0.03,0.05,-0.005,-0.035,0.04,0.066,-0.024,0.031,0.034,-0.057,-0.008
1.606,-0.02,0.028,0.048,-0.004,-0.034,0.038,0.063,-0.035,0.02,0.026,-0.066,-0.01
1.608,-0.02,0.025,0.044,-0.003,-0.033,0.035,0.06,-0.041,0.013,0.018,-0.076,-0.01
1.61,-0.02,0.025,0.045,-0.003,-0.033,0.035,0.06,-0.045,0.005,0.01,-0.075,-0.015
1.612,-0.025,0.021,0.046,0.001,-0.035,0.033,0.06,-0.049,-0.003,0.002,-0.074,-0.02
1.614,-0.022,0.02,0.042,0.001,-0.032,0.031,0.06,-0.053,-0.008,-0.003,-0.081,-0.02
1.616,-0.022,0.018,0.04,0.002,-0.031,0.029,0.06,-0.057,-0.011,-0.009,-0.088,-0.022
1.618,-0.025,0.014,0.039,0.005,-0.033,0.026,0.06,-0.061,-0.017,-0.017,-0.09,-0.025
1.62,-0.02,0.015,0.035,0.002,-0.028,0.025,0.06,-0.065,-0.025,-0.02,-0.09,-0.025
1.622,-0.019,0.016,0.035,0.001,-0.028,0.026,0.06,-0.065,-0.029,-0.024,-0.095,-0.029
1.624,-0.023,0.009,0.032,0.007,-0.028,0.02,0.057,-0.068,-0.032,-0.031,-0.093,-0.03
1.626,-0.027,0.002,0.029,0.012,-0.028,0.016,0.054,-0.071,-0.041,-0.038,-0.102,-0.031
1.628,-0.031,-0.001,0.03,0.016,-0.031,0.015,0.055,-0.07,-0.051,-0.041,-0.117,-0.036
1.63,-0.035,-0.005,0.03,0.02,-0.032,0.012,0.055,-0.07,-0.05,-0.045,-0.115,-0.04
1.632,-0.035,-0.009,0.026,0.022,-0.03,0.008,0.055,-0.07,-0.048,-0.05,-0.114,-0.039
1.634,-0.038,-0.013,0.025,0.025,-0.031,0.006,0.055,-0.067,-0.06,-0.049,-0.121,-0.049
1.636,-0.042,-0.017,0.025,0.029,-0.033,0.004,0.055,-0.064,-0.065,-0.054,-0.128,-0.059
1.638,-0.046,-0.021,0.025,0.033,-0.036,0.002,0.055,-0.065,-0.059,-0.06,-0.131,-0.06
1.64,-0.05,-0.025,0.025,0.037,-0.037,0.0,0.055,-0.065,-0.06,-0.055,-0.135,-0.06
1.642,-0.05,-0.029,0.021,0.039,-0.035,-0.004,0.055,-0.061,-0.06,-0.055,-0.135,-0.064
1.644,-0.053,-0.033,0.02,0.043,-0.036,-0.007,0.052,-0.06,-0.06,-0.055,-0.134,-0.065
1.646,-0.055,-0.035,0.02,0.045,-0.037,-0.007,0.049,-0.06,-0.06,-0.055,-0.138,-0.066
1.648,-0.055,-0.035,0.02,0.045,-0.037,-0.007,0.05,-0.06,-0.06,-0.054,-0.147,-0.071
1.65,-0.055,-0.035,0.02,0.045,-0.037,-0.007,0.05,-0.06,-0.06,-0.05,-0.15,-0.075
1.652,-0.051,-0.035,0.016,0.043,-0.033,-0.01,0.05,-0.056,-0.06,-0.05,-0.15,-0.079
1.654,-0.05,-0.035,0.015,0.042,-0.032,-0.01,0.05,-0.054,-0.06,-0.05,-0.153,-0.08
1.656,-0.05,-0.035,0.015,0.042,-0.032,-0.01,0.05,-0.056,-0.06,-0.05,-0.156,-0.082
1.658,-0.05,-0.035,0.015,0.042,-0.032,-0.01,0.05,-0.054,-0.06,-0.049,-0.154,-0.085
1.66,-0.05,-0.035,0.015,0.042,-0.032,-0.01,0.05,-0.05,-0.06,-0.045,-0.15,-0.085
1.662,-0.05,-0.035,0.015,0.042,-0.032,-0.01,0.05,-0.05,-0.06,-0.045,-0.15,-0.085
1.664,-0.047,-0.035,0.012,0.041,-0.029,-0.011,0.05,-0.05,-0.057,-0.045,-0.15,-0.085
1.666,-0.044,-0.035,0.009,0.039,-0.026,-0.012,0.05,-0.05,-0.054,-0.045,-0.15,-0.085
1.668,-0.046,-0.036,0.01,0.041,-0.028,-0.012,0.05,-0.049,-0.055,-0.045,-0.15,-0.085
1.67,-0.05,-0.04,0.01,0.045,-0.03,-0.015,0.05,-0.045,-0.055,-0.045,-0.15,-0.085
1.672,-0.054,-0.044,0.01,0.049,-0.032,-0.016,0.046,-0.04,-0.055,-0.041,-0.146,-0.085
1.674,-0.055,-0.048,0.007,0.052,-0.031,-0.02,0.045,-0.04,-0.055,-0.04,-0.145,-0.085
1.676,-0.055,-0.05,0.004,0.052,-0.03,-0.023,0.045,-0.038,-0.055,-0.04,-0.145,-0.085
1.678,-0.055,-0.05,0.005,0.052,-0.03,-0.022,0.045,-0.035,-0.055,-0.04,-0.145,-0.085
1.68,-0.055,-0.05,0.005,0.052,-0.03,-0.022,0.045,-0.035,-0.055,-0.04,-0.145,-0.085
1.682,-0.055,-0.05,0.005,0.052,-0.03,-0.022,0.045,-0.031,-0.055,-0.036,-0.145,-0.085
1.684,-0.056,-0.05,0.006,0.052,-0.031,-0.022,0.045,-0.026,-0.055,-0.035,-0.146,-0.085
1.686,-0.053,-0.05,0.003,0.051,-0.028,-0.023,0.045,-0.025,-0.055,-0.035,-0.143,-0.085
1.688,-0.05,-0.05,0.0,0.05,-0.025,-0.025,0.045,-0.024,-0.055,-0.035,-0.14,-0.085
1.69,-0.05,-0.05,0.0,0.05,-0.025,-0.025,0.045,-0.02,-0.055,-0.035,-0.14,-0.085
1.692,-0.05,-0.05,0.0,0.05,-0.025,-0.025,0.045,-0.02,-0.051,-0.035,-0.14,-0.085
1.694,-0.047,-0.05,-0.003,0.049,-0.022,-0.026,0.045,-0.017,-0.05,-0.032,-0.14,-0.085
1.696,-0.044,-0.05,-0.006,0.048,-0.019,-0.027,0.045,-0.014,-0.048,-0.03,-0.14,-0.085
1.698,-0.045,-0.05,-0.005,0.048,-0.02,-0.027,0.046,-0.015,-0.044,-0.029,-0.139,-0.085
1.7,-0.045,-0.05,-0.005,0.048,-0.02,-0.027,0.05,-0.015,-0.045,-0.025,-0.135,-0.085
1.702,-0.041,-0.05,-0.009,0.045,-0.016,-0.029,0.05,-0.015,-0.045,-0.025,-0.135,-0.085
1.704,-0.04,-0.051,-0.011,0.045,-0.015,-0.031,0.049,-0.016,-0.042,-0.026,-0.135,-0.085
1.706,-0.039,-0.048,-0.009,0.043,-0.015,-0.029,0.052,-0.013,-0.039,-0.023,-0.135,-0.085
1.708,-0.043,-0.054,-0.011,0.048,-0.016,-0.032,0.055,-0.01,-0.04,-0.02,-0.135,-0.085
1.71,-0.055,-0.07,-0.015,0.063,-0.02,-0.042,0.055,-0.01,-0.04,-0.02,-0.135,-0.085
1.712,-0.051,-0.067,-0.015,0.06,-0.018,-0.041,0.055,-0.01,-0.036,-0.02,-0.135,-0.085
1.714,-0.05,-0.064,-0.014,0.057,-0.017,-0.039,0.055,-0.01,-0.034,-0.017,-0.132,-0.085
1.716,-0.049,-0.066,-0.017,0.058,-0.015,-0.041,0.055,-0.01,-0.036,-0.014,-0.128,-0.083
1.718,-0.044,-0.064,-0.02,0.054,-0.011,-0.042,0.055,-0.01,-0.034,-0.015,-0.124,-0.079
1.72,-0.04,-0.06,-0.02,0.05,-0.01,-0.04,0.055,-0.01,-0.03,-0.015,-0.12,-0.075
1.722,-0.04,-0.06,-0.02,0.05,-0.01,-0.04,0.055,-0.006,-0.03,-0.011,-0.116,-0.071
1.724,-0.037,-0.06,-0.023,0.049,-0.007,-0.041,0.055,-0.005,-0.031,-0.009,-0.112,-0.067
1.726,-0.035,-0.06,-0.025,0.048,-0.005,-0.042,0.055,-0.005,-0.028,-0.011,-0.108,-0.063
1.728,-0.034,-0.059,-0.025,0.047,-0.004,-0.042,0.054,-0.005,-0.025,-0.009,-0.104,-0.059
1.73,-0.03,-0.055,-0.025,0.043,-0.002,-0.04,0.055,-0.005,-0.025,-0.005,-0.1,-0.055
1.732,-0.034,-0.055,-0.021,0.044,-0.006,-0.037,0.072,-0.005,-0.025,-0.005,-0.1,-0.051
1.734,-0.036,-0.056,-0.019,0.046,-0.008,-0.037,0.074,-0.002,-0.025,-0.005,-0.1,-0.05
1.736,-0.032,-0.053,-0.021,0.043,-0.006,-0.037,0.069,0.001,-0.025,-0.005,-0.1,-0.05
1.738,-0.03,-0.05,-0.019,0.04,-0.006,-0.034,0.07,0.0,-0.025,-0.005,-0.1,-0.05
1.74,-0.035,-0.05,-0.015,0.043,-0.01,-0.032,0.07,0.0,-0.025,-0.005,-0.1,-0.05
1.742,-0.035,-0.05,-0.015,0.043,-0.01,-0.032,0.07,0.0,-0.025,-0.005,-0.096,-0.05
1.744,-0.036,-0.051,-0.015,0.043,-0.01,-0.032,0.07,0.0,-0.022,-0.006,-0.095,-0.05
1.746,-0.033,-0.048,-0.015,0.041,-0.008,-0.031,0.07,0.0,-0.019,-0.003,-0.095,-0.05
1.748,-0.03,-0.045,-0.014,0.038,-0.008,-0.029,0.07,-0.001,-0.02,0.0,-0.095,-0.05
1.75,-0.035,-0.045,-0.01,0.04,-0.012,-0.027,0.07,-0.005,-0.02,0.0,-0.095,-0.05
1.752,-0.035,-0.045,-0.01,0.04,-0.012,-0.027,0.07,-0.005,-0.02,0.0,-0.095,-0.05
1.754,-0.035,-0.045,-0.01,0.04,-0.012,-0.027,0.07,-0.008,-0.02,0.0,-0.096,-0.05
1.756,-0.035,-0.045,-0.01,0.04,-0.012,-0.027,0.069,-0.011,-0.02,0.0,-0.093,-0.05
1.758,-0.036,-0.045,-0.009,0.04,-0.013,-0.027,0.072,-0.01,-0.02,0.0,-0.09,-0.049
1.76,-0.04,-0.045,-0.005,0.043,-0.017,-0.025,0.08,-0.01,-0.02,0.0,-0.09,-0.045
1.762,-0.04,-0.045,-0.005,0.043,-0.017,-0.025,0.076,-0.014,-0.016,0.0,-0.09,-0.045
1.764,-0.039,-0.045,-0.006,0.043,-0.016,-0.025,0.075,-0.016,-0.015,0.003,-0.09,-0.045
1.766,-0.042,-0.045,-0.003,0.044,-0.019,-0.024,0.073,-0.014,-0.015,0.006,-0.09,-0.045
1.768,-0.045,-0.045,0.0,0.045,-0.022,-0.022,0.069,-0.016,-0.015,0.005,-0.089,-0.045
1.77,-0.045,-0.045,0.0,0.045,-0.022,-0.022,0.07,-0.02,-0.015,0.005,-0.085,-0.045
1.772,-0.045,-0.045,0.0,0.045,-0.022,-0.022,0.07,-0.02,-0.015,0.005,-0.085,-0.045
1.774,-0.044,-0.045,-0.001,0.045,-0.021,-0.022,0.067,-0.019,-0.015,0.005,-0.085,-0.045
1.776,-0.047,-0.045,0.002,0.046,-0.024,-0.021,0.064,-0.022,-0.015,0.005,-0.085,-0.045
1.778,-0.05,-0.045,0.005,0.047,-0.027,-0.02,0.065,-0.025,-0.015,0.005,-0.085,-0.045
1.78,-0.05,-0.045,0.005,0.047,-0.027,-0.02,0.065,-0.025,-0.015,0.005,-0.085,-0.045
1.782,-0.05,-0.045,0.005,0.047,-0.027,-0.02,0.061,-0.029,-0.023,0.005,-0.084,-0.045
1.784,-0.051,-0.045,0.006,0.047,-0.028,-0.02,0.059,-0.031,-0.032,0.002,-0.094,-0.044
1.786,-0.048,-0.045,0.003,0.046,-0.025,-0.021,0.061,-0.029,-0.037,0.0,-0.104,-0.047
1.788,-0.045,-0.045,0.0,0.045,-0.022,-0.022,0.059,-0.031,-0.041,-0.001,-0.105,-0.05
1.79,-0.045,-0.045,0.0,0.045,-0.022,-0.022,0.055,-0.035,-0.045,-0.005,-0.105,-0.05
1.792,-0.045,-0.045,0.0,0.045,-0.022,-0.022,0.055,-0.035,-0.049,-0.005,-0.109,-0.054
1.794,-0.045,-0.045,0.0,0.045,-0.022,-0.022,0.052,-0.034,-0.05,-0.008,-0.11,-0.055
1.796,-0.045,-0.045,0.0,0.045,-0.022,-0.022,0.049,-0.037,-0.049,-0.01,-0.112,-0.057
1.798,-0.045,-0.045,0.0,0.045,-0.022,-0.022,0.05,-0.04,-0.051,-0.011,-0.116,-0.06
1.8,-0.045,-0.045,0.0,0.045,-0.022,-0.022,0.05,-0.04,-0.055,-0.015,-0.115,-0.06
1.802,-0.041,-0.041,0.0,0.041,-0.02,-0.02,0.046,-0.04,-0.055,-0.015,-0.115,-0.064
1.804,-0.038,-0.038,0.0,0.038,-0.019,-0.019,0.044,-0.043,-0.054,-0.018,-0.118,-0.065
1.806,-0.045,-0.045,0.0,0.045,-0.022,-0.022,0.046,-0.046,-0.057,-0.02,-0.121,-0.067
1.808,-0.057,-0.057,0.0,0.057,-0.028,-0.028,0.044,-0.045,-0.06,-0.02,-0.12,-0.07
1.81,-0.06,-0.06,0.0,0.06,-0.03,-0.03,0.04,-0.045,-0.06,-0.025,-0.12,-0.07
1.812,-0.06,-0.06,0.0,0.06,-0.03,-0.03,0.04,-0.045,-0.072,-0.037,-0.124,-0.074
1.814,-0.06,-0.06,0.0,0.06,-0.03,-0.03,0.041,-0.044,-0.076,-0.044,-0.128,-0.078
1.816,-0.06,-0.06,0.0,0.06,-0.03,-0.03,0.038,-0.047,-0.075,-0.045,-0.132,-0.082
1.818,-0.06,-0.06,0.0,0.06,-0.03,-0.03,0.035,-0.05,-0.075,-0.045,-0.135,-0.085
1.82,-0.06,-0.06,0.0,0.06,-0.03,-0.03,0.035,-0.05,-0.075,-0.045,-0.135,-0.085
1.822,-0.06,-0.06,0.0,0.06,-0.03,-0.03,0.035,-0.05,-0.075,-0.045,-0.135,-0.085
1.824,-0.06,-0.06,0.0,0.06,-0.03,-0.03,0.035,-0.05,-0.075,-0.045,-0.135,-0.085
1.826,-0.06,-0.06,0.0,0.06,-0.03,-0.03,0.035,-0.05,-0.074,-0.045,-0.136,-0.085
1.828,-0.06,-0.06,0.0,0.06,-0.03,-0.03,0.035,-0.051,-0.078,-0.046,-0.141,-0.085
1.83,-0.06,-0.06,0.0,0.06,-0.03,-0.03,0.035,-0.055,-0.09,-0.05,-0.145,-0.085
1.832,-0.06,-0.06,0.0,0.06,-0.03,-0.03,0.035,-0.055,-0.086,-0.05,-0.145,-0.085
1.834,-0.06,-0.06,0.0,0.06,-0.03,-0.03,0.032,-0.055,-0.084,-0.053,-0.145,-0.088
1.836,-0.06,-0.06,0.0,0.06,-0.03,-0.03,0.029,-0.055,-0.085,-0.055,-0.145,-0.091
1.838,-0.06,-0.06,0.0,0.06,-0.03,-0.03,0.03,-0.055,-0.085,-0.056,-0.145,-0.09
1.84,-0.06,-0.06,0.0,0.06,-0.03,-0.03,0.03,-0.055,-0.085,-0.06,-0.145,-0.09
1.842,-0.056,-0.06,-0.004,0.058,-0.026,-0.032,0.03,-0.055,-0.085,-0.06,-0.145,-0.09
1.844,-0.055,-0.06,-0.006,0.058,-0.025,-0.032,0.03,-0.055,-0.085,-0.06,-0.144,-0.09
1.846,-0.055,-0.059,-0.004,0.058,-0.025,-0.031,0.03,-0.055,-0.087,-0.06,-0.147,-0.09
1.848,-0.056,-0.061,-0.006,0.059,-0.025,-0.033,0.03,-0.055,-0.091,-0.06,-0.15,-0.09
1.85,-0.06,-0.07,-0.01,0.065,-0.025,-0.04,0.03,-0.055,-0.095,-0.065,-0.15,-0.09
1.852,-0.065,-0.075,-0.01,0.07,-0.027,-0.042,0.026,-0.055,-0.103,-0.074,-0.162,-0.097
1.854,-0.064,-0.074,-0.01,0.069,-0.026,-0.041,0.025,-0.057,-0.108,-0.077,-0.169,-0.111
1.856,-0.07,-0.079,-0.01,0.074,-0.03,-0.044,0.025,-0.063,-0.113,-0.086,-0.172,-0.114
1.858,-0.083,-0.094,-0.011,0.089,-0.036,-0.052,0.025,-0.064,-0.115,-0.095,-0.175,-0.109
1.86,-0.09,-0.105,-0.015,0.098,-0.037,-0.06,0.025,-0.06,-0.11,-0.09,-0.17,-0.11
1.862,-0.086,-0.102,-0.015,0.095,-0.035,-0.058,0.025,-0.06,-0.11,-0.09,-0.17,-0.11
1.864,-0.082,-0.096,-0.014,0.09,-0.033,-0.055,0.025,-0.06,-0.111,-0.09,-0.17,-0.11
1.866,-0.078,-0.095,-0.017,0.087,-0.03,-0.056,0.025,-0.06,-0.108,-0.09,-0.17,-0.11
1.868,-0.074,-0.094,-0.02,0.084,-0.026,-0.057,0.025,-0.059,-0.105,-0.089,-0.17,-0.11
1.87,-0.07,-0.09,-0.02,0.08,-0.025,-0.055,0.025,-0.055,-0.105,-0.085,-0.17,-0.11
1.872,-0.066,-0.085,-0.02,0.076,-0.023,-0.052,0.029,-0.055,-0.105,-0.085,-0.166,-0.11
1.874,-0.065,-0.085,-0.021,0.075,-0.021,-0.052,0.03,-0.055,-0.106,-0.085,-0.165,-0.11
1.876,-0.065,-0.083,-0.018,0.074,-0.023,-0.05,0.03,-0.055,-0.103,-0.085,-0.165,-0.11
1.878,-0.065,-0.08,-0.015,0.073,-0.025,-0.047,0.03,-0.054,-0.1,-0.084,-0.165,-0.11
1.88,-0.065,-0.08,-0.015,0.073,-0.025,-0.047,0.03,-0.05,-0.1,-0.08,-0.165,-0.11
1.882,-0.061,-0.076,-0.015,0.069,-0.022,-0.045,0.03,-0.05,-0.1,-0.08,-0.165,-0.11
1.884,-0.06,-0.074,-0.015,0.067,-0.022,-0.045,0.03,-0.05,-0.1,-0.08,-0.166,-0.107
1.886,-0.06,-0.076,-0.015,0.068,-0.022,-0.046,0.03,-0.05,-0.098,-0.08,-0.163,-0.104
1.888,-0.06,-0.074,-0.014,0.067,-0.022,-0.044,0.031,-0.05,-0.095,-0.08,-0.16,-0.105
1.89,-0.06,-0.07,-0.01,0.065,-0.025,-0.04,0.035,-0.05,-0.095,-0.08,-0.16,-0.105
1.892,-0.06,-0.07,-0.01,0.065,-0.025,-0.04,0.035,-0.046,-0.095,-0.076,-0.16,-0.105
1.894,-0.057,-0.067,-0.01,0.062,-0.023,-0.038,0.035,-0.045,-0.092,-0.075,-0.16,-0.105
1.896,-0.054,-0.064,-0.01,0.059,-0.022,-0.037,0.035,-0.045,-0.09,-0.075,-0.16,-0.105
1.898,-0.055,-0.065,-0.01,0.06,-0.022,-0.037,0.035,-0.045,-0.09,-0.075,-0.159,-0.105
1.9,-0.055,-0.065,-0.01,0.06,-0.022,-0.037,0.035,-0.045,-0.09,-0.075,-0.155,-0.105
1.902,-0.05,-0.061,-0.01,0.055,-0.02,-0.036,0.035,-0.041,-0.09,-0.071,-0.155,-0.105
1.904,-0.053,-0.06,-0.007,0.057,-0.023,-0.033,0.033,-0.04,-0.087,-0.07,-0.155,-0.105
1.906,-0.054,-0.058,-0.004,0.057,-0.024,-0.031,0.041,-0.04,-0.084,-0.07,-0.155,-0.105
1.908,-0.049,-0.054,-0.005,0.052,-0.022,-0.03,0.05,-0.04,-0.085,-0.07,-0.155,-0.105
1.91,-0.05,-0.055,-0.005,0.053,-0.022,-0.03,0.045,-0.04,-0.085,-0.07,-0.155,-0.105
1.912,-0.051,-0.055,-0.005,0.054,-0.022,-0.03,0.045,-0.04,-0.085,-0.07,-0.155,-0.101
1.914,-0.046,-0.052,-0.006,0.05,-0.02,-0.028,0.042,-0.037,-0.082,-0.067,-0.152,-0.1
1.916,-0.046,-0.049,-0.003,0.048,-0.022,-0.026,0.039,-0.035,-0.079,-0.064,-0.149,-0.1
1.918,-0.051,-0.05,0.0,0.05,-0.026,-0.025,0.04,-0.034,-0.08,-0.065,-0.15,-0.1
1.92,-0.05,-0.05,0.0,0.05,-0.025,-0.025,0.04,-0.03,-0.08,-0.065,-0.15,-0.1
1.922,-0.046,-0.046,0.0,0.046,-0.022,-0.023,0.036,-0.03,-0.08,-0.065,-0.15,-0.1
1.924,-0.045,-0.045,0.0,0.045,-0.022,-0.022,0.035,-0.031,-0.08,-0.065,-0.151,-0.097
1.926,-0.045,-0.045,0.0,0.045,-0.022,-0.022,0.033,-0.028,-0.08,-0.065,-0.148,-0.094
1.928,-0.045,-0.045,0.0,0.045,-0.022,-0.022,0.029,-0.025,-0.08,-0.065,-0.145,-0.095
1.93,-0.045,-0.045,0.0,0.045,-0.022,-0.022,0.03,-0.025,-0.08,-0.065,-0.145,-0.095
1.932,-0.045,-0.041,0.004,0.042,-0.024,-0.018,0.031,-0.025,-0.08,-0.065,-0.145,-0.095
1.934,-0.048,-0.04,0.008,0.043,-0.028,-0.016,0.027,-0.022,-0.08,-0.065,-0.145,-0.095
1.936,-0.052,-0.04,0.012,0.046,-0.032,-0.014,0.025,-0.019,-0.08,-0.065,-0.145,-0.095
1.938,-0.055,-0.04,0.015,0.047,-0.035,-0.012,0.024,-0.02,-0.08,-0.065,-0.145,-0.094
1.94,-0.055,-0.04,0.015,0.047,-0.035,-0.012,0.02,-0.02,-0.08,-0.065,-0.145,-0.09
1.942,-0.055,-0.036,0.019,0.045,-0.036,-0.008,0.02,-0.016,-0.076,-0.065,-0.141,-0.09
1.944,-0.058,-0.035,0.024,0.046,-0.04,-0.005,0.021,-0.015,-0.075,-0.065,-0.14,-0.09
1.946,-0.06,-0.035,0.025,0.047,-0.042,-0.005,0.018,-0.014,-0.075,-0.065,-0.14,-0.09
1.948,-0.06,-0.035,0.026,0.047,-0.043,-0.005,0.015,-0.018,-0.075,-0.065,-0.14,-0.09
1.95,-0.065,-0.035,0.03,0.05,-0.047,-0.002,0.015,-0.035,-0.075,-0.065,-0.14,-0.09
1.952,-0.07,-0.035,0.034,0.052,-0.051,0.0,0.015,-0.043,-0.075,-0.065,-0.14,-0.086
1.954,-0.068,-0.032,0.036,0.049,-0.052,0.002,0.012,-0.054,-0.075,-0.065,-0.137,-0.085
1.956,-0.062,-0.029,0.033,0.046,-0.048,0.001,0.009,-0.063,-0.075,-0.065,-0.134,-0.085
1.958,-0.06,-0.03,0.03,0.045,-0.045,0.0,0.01,-0.066,-0.075,-0.065,-0.135,-0.085
1.96,-0.06,-0.03,0.03,0.045,-0.045,0.0,0.01,-0.07,-0.075,-0.065,-0.135,-0.085
1.962,-0.06,-0.03,0.03,0.045,-0.045,0.0,0.006,-0.074,-0.075,-0.065,-0.135,-0.085
1.964,-0.057,-0.027,0.031,0.042,-0.044,0.001,0.005,-0.075,-0.075,-0.065,-0.135,-0.086
1.966,-0.053,-0.024,0.028,0.038,-0.04,0.001,0.005,-0.075,-0.075,-0.065,-0.135,-0.083
1.968,-0.05,-0.025,0.025,0.037,-0.037,0.0,0.005,-0.075,-0.075,-0.066,-0.134,-0.08
1.97,-0.05,-0.025,0.025,0.037,-0.037,0.0,0.005,-0.075,-0.075,-0.07,-0.13,-0.08
1.972,-0.05,-0.025,0.025,0.037,-0.037,0.0,0.001,-0.074,-0.074,-0.07,-0.13,-0.08
1.974,-0.05,-0.024,0.026,0.037,-0.037,0.001,0.0,-0.085,-0.084,-0.07,-0.13,-0.08
1.976,-0.05,-0.027,0.023,0.038,-0.036,-0.002,0.0,-0.09,-0.094,-0.07,-0.13,-0.08
1.978,-0.05,-0.03,0.02,0.04,-0.035,-0.005,0.0,-0.084,-0.095,-0.07,-0.13,-0.08
1.98,-0.05,-0.03,0.02,0.04,-0.035,-0.005,0.0,-0.08,-0.095,-0.07,-0.13,-0.08
1.982,-0.05,-0.03,0.02,0.04,-0.035,-0.005,-0.004,-0.076,-0.095,-0.07,-0.13,-0.08
1.984,-0.053,-0.033,0.02,0.043,-0.036,-0.006,-0.006,-0.072,-0.095,-0.07,-0.13,-0.08
1.986,-0.056,-0.035,0.02,0.046,-0.038,-0.007,-0.004,-0.068,-0.095,-0.07,-0.13,-0.08
1.988,-0.054,-0.035,0.019,0.045,-0.036,-0.008,-0.006,-0.064,-0.095,-0.07,-0.13,-0.079
1.99,-0.05,-0.035,0.015,0.042,-0.032,-0.01,-0.01,-0.06,-0.095,-0.07,-0.13,-0.075
1.992,-0.046,-0.031,0.015,0.038,-0.03,-0.008,-0.01,-0.056,-0.095,-0.074,-0.128,-0.075
1.994,-0.044,-0.029,0.015,0.036,-0.03,-0.007,-0.01,-0.055,-0.095,-0.075,-0.142,-0.075
1.996,-0.046,-0.031,0.015,0.038,-0.031,-0.007,-0.01,-0.055,-0.095,-0.075,-0.152,-0.075
1.998,-0.043,-0.029,0.014,0.036,-0.029,-0.007,-0.011,-0.055,-0.095,-0.075,-0.15,-0.075
2.0,-0.035,-0.025,0.01,0.03,-0.022,-0.007,-0.015,-0.055,-0.095,-0.075,-0.15,-0.075
2.002,-0.035,-0.025,0.01,0.03,-0.022,-0.007,-0.015,-0.055,-0.095,-0.075,-0.15,-0.075
2.004,-0.034,-0.024,0.01,0.029,-0.022,-0.007,-0.015,-0.052,-0.095,-0.075,-0.15,-0.075
2.006,-0.038,-0.028,0.011,0.033,-0.024,-0.008,-0.015,-0.049,-0.095,-0.075,-0.15,-0.075
2.008,-0.047,-0.038,0.009,0.043,-0.028,-0.014,-0.014,-0.05,-0.095,-0.075,-0.15,-0.074
2.01,-0.06,-0.05,0.01,0.055,-0.035,-0.02,-0.01,-0.05,-0.095,-0.075,-0.15,-0.075
2.012,-0.086,-0.055,0.031,0.07,-0.058,-0.012,-0.01,-0.05,-0.095,-0.075,-0.15,-0.091
2.014,-0.089,-0.055,0.034,0.072,-0.061,-0.01,-0.011,-0.05,-0.095,-0.077,-0.15,-0.1
2.016,-0.084,-0.055,0.029,0.07,-0.056,-0.013,-0.008,-0.05,-0.095,-0.083,-0.15,-0.1
2.018,-0.085,-0.054,0.03,0.069,-0.057,-0.012,-0.005,-0.049,-0.095,-0.085,-0.149,-0.101
2.02,-0.085,-0.055,0.03,0.07,-0.057,-0.012,-0.005,-0.045,-0.095,-0.085,-0.15,-0.105
2.022,-0.098,-0.068,0.03,0.083,-0.064,-0.019,-0.005,-0.045,-0.099,-0.098,-0.163,-0.11
2.024,-0.098,-0.068,0.03,0.083,-0.064,-0.019,-0.006,-0.045,-0.104,-0.098,-0.163,-0.107
2.026,-0.094,-0.064,0.03,0.079,-0.061,-0.016,-0.003,-0.045,-0.103,-0.094,-0.159,-0.104
2.028,-0.095,-0.065,0.03,0.08,-0.062,-0.017,0.0,-0.045,-0.099,-0.095,-0.16,-0.105
2.03,-0.095,-0.065,0.03,0.08,-0.062,-0.017,0.0,-0.045,-0.1,-0.095,-0.16,-0.105
2.032,-0.095,-0.065,0.03,0.08,-0.062,-0.017,0.0,-0.041,-0.1,-0.095,-0.16,-0.105
2.034,-0.092,-0.062,0.03,0.077,-0.061,-0.016,0.0,-0.04,-0.1,-0.096,-0.16,-0.105
2.036,-0.089,-0.059,0.03,0.074,-0.06,-0.015,0.002,-0.04,-0.1,-0.093,-0.16,-0.105
2.038,-0.09,-0.06,0.03,0.075,-0.06,-0.015,0.005,-0.04,-0.1,-0.09,-0.16,-0.105
2.04,-0.09,-0.06,0.03,0.075,-0.06,-0.015,0.005,-0.04,-0.1,-0.09,-0.16,-0.105
2.042,-0.086,-0.06,0.026,0.073,-0.056,-0.017,0.005,-0.04,-0.1,-0.09,-0.156,-0.105
2.044,-0.081,-0.057,0.025,0.069,-0.053,-0.016,0.008,-0.041,-0.097,-0.09,-0.155,-0.105
2.046,-0.08,-0.054,0.025,0.067,-0.052,-0.015,0.01,-0.038,-0.094,-0.09,-0.155,-0.105
2.048,-0.08,-0.055,0.025,0.067,-0.052,-0.015,0.01,-0.035,-0.095,-0.09,-0.155,-0.105
2.05,-0.08,-0.055,0.025,0.067,-0.052,-0.015,0.01,-0.035,-0.095,-0.09,-0.155,-0.105
2.052,-0.08,-0.055,0.025,0.067,-0.052,-0.015,0.01,-0.031,-0.095,-0.086,-0.155,-0.101
2.054,-0.081,-0.056,0.025,0.068,-0.052,-0.015,0.013,-0.03,-0.095,-0.085,-0.155,-0.1
2.056,-0.078,-0.053,0.025,0.065,-0.051,-0.014,0.016,-0.028,-0.095,-0.085,-0.155,-0.1
2.058,-0.075,-0.05,0.025,0.062,-0.05,-0.012,0.015,-0.024,-0.095,-0.085,-0.154,-0.1
2.06,-0.075,-0.05,0.025,0.062,-0.05,-0.012,0.015,-0.025,-0.095,-0.085,-0.15,-0.1
2.062,-0.075,-0.05,0.025,0.062,-0.05,-0.012,0.015,-0.026,-0.091,-0.085,-0.15,-0.1
2.064,-0.075,-0.051,0.025,0.062,-0.05,-0.012,0.018,-0.022,-0.09,-0.082,-0.15,-0.1
2.066,-0.074,-0.048,0.025,0.06,-0.049,-0.011,0.021,-0.02,-0.09,-0.079,-0.15,-0.1
2.068,-0.069,-0.045,0.024,0.056,-0.046,-0.01,0.02,-0.019,-0.09,-0.08,-0.15,-0.1
2.07,-0.065,-0.045,0.02,0.055,-0.042,-0.012,0.02,-0.015,-0.09,-0.08,-0.15,-0.1
2.072,-0.065,-0.045,0.02,0.055,-0.042,-0.012,0.02,-0.015,-0.09,-0.08,-0.15,-0.1
2.074,-0.065,-0.045,0.02,0.055,-0.042,-0.012,0.02,-0.012,-0.09,-0.08,-0.15,-0.1
2.076,-0.065,-0.045,0.02,0.055,-0.042,-0.012,0.02,-0.009,-0.09,-0.08,-0.15,-0.1
2.078,-0.066,-0.046,0.02,0.056,-0.042,-0.012,0.02,-0.01,-0.09,-0.079,-0.149,-0.099
2.08,-0.07,-0.05,0.02,0.06,-0.045,-0.015,0.02,-0.01,-0.09,-0.075,-0.145,-0.095
2.082,-0.07,-0.05,0.02,0.06,-0.045,-0.015,0.02,-0.006,-0.086,-0.075,-0.145,-0.095
2.084,-0.07,-0.05,0.02,0.06,-0.045,-0.015,0.02,-0.002,-0.085,-0.075,-0.146,-0.095
2.086,-0.07,-0.05,0.02,0.06,-0.045,-0.015,0.02,0.002,-0.083,-0.075,-0.143,-0.095
2.088,-0.069,-0.049,0.02,0.059,-0.045,-0.015,0.021,0.006,-0.08,-0.074,-0.14,-0.095
2.09,-0.065,-0.045,0.02,0.055,-0.042,-0.012,0.025,0.01,-0.08,-0.07,-0.14,-0.095
2.092,-0.065,-0.045,0.02,0.055,-0.042,-0.012,0.025,0.015,-0.076,-0.07,-0.14,-0.095
2.094,-0.065,-0.045,0.02,0.055,-0.042,-0.012,0.025,0.014,-0.075,-0.07,-0.141,-0.096
2.096,-0.065,-0.045,0.02,0.055,-0.042,-0.012,0.025,0.018,-0.073,-0.07,-0.138,-0.093
2.098,-0.065,-0.045,0.02,0.055,-0.042,-0.012,0.026,0.027,-0.07,-0.069,-0.135,-0.09
2.1,-0.065,-0.045,0.02,0.055,-0.042,-0.012,0.03,0.03,-0.07,-0.065,-0.135,-0.09
2.102,-0.065,-0.045,0.02,0.055,-0.042,-0.012,0.03,0.03,-0.066,-0.065,-0.135,-0.09
2.104,-0.066,-0.046,0.02,0.056,-0.042,-0.012,0.033,0.033,-0.065,-0.065,-0.135,-0.09
2.106,-0.063,-0.043,0.02,0.053,-0.041,-0.011,0.036,0.036,-0.063,-0.065,-0.133,-0.09
2.108,-0.06,-0.04,0.02,0.05,-0.04,-0.01,0.034,0.034,-0.06,-0.065,-0.13,-0.09
2.11,-0.06,-0.04,0.02,0.05,-0.04,-0.01,0.03,0.03,-0.06,-0.065,-0.13,-0.09
2.112,-0.06,-0.04,0.02,0.05,-0.04,-0.01,0.026,0.026,-0.056,-0.061,-0.13,-0.09
2.114,-0.06,-0.04,0.02,0.05,-0.04,-0.01,0.025,0.021,-0.054,-0.06,-0.127,-0.087
2.116,-0.06,-0.04,0.02,0.05,-0.04,-0.01,0.024,0.02,-0.057,-0.06,-0.125,-0.084
2.118,-0.06,-0.04,0.02,0.05,-0.04,-0.01,0.019,0.019,-0.06,-0.06,-0.125,-0.085
2.12,-0.06,-0.04,0.02,0.05,-0.04,-0.01,0.015,0.015,-0.06,-0.06,-0.125,-0.085
2.122,-0.061,-0.04,0.02,0.051,-0.041,-0.01,0.016,0.011,-0.06,-0.056,-0.125,-0.085
2.124,-0.054,-0.037,0.017,0.045,-0.035,-0.01,0.007,0.01,-0.06,-0.055,-0.122,-0.085
2.126,-0.049,-0.034,0.014,0.041,-0.031,-0.01,-0.007,0.009,-0.06,-0.055,-0.119,-0.085
2.128,-0.05,-0.035,0.015,0.042,-0.032,-0.01,-0.017,0.004,-0.06,-0.055,-0.12,-0.085
2.13,-0.05,-0.035,0.015,0.042,-0.032,-0.01,-0.025,0.0,-0.06,-0.055,-0.12,-0.085
2.132,-0.05,-0.035,0.015,0.042,-0.032,-0.01,-0.037,0.0,-0.068,-0.054,-0.12,-0.085
2.134,-0.05,-0.035,0.015,0.042,-0.032,-0.01,-0.049,-0.003,-0.073,-0.06,-0.123,-0.088
2.136,-0.05,-0.035,0.015,0.042,-0.032,-0.01,-0.06,-0.007,-0.077,-0.069,-0.127,-0.092
2.138,-0.05,-0.035,0.015,0.042,-0.032,-0.01,-0.065,-0.011,-0.081,-0.076,-0.131,-0.096
2.14,-0.05,-0.035,0.015,0.042,-0.032,-0.01,-0.06,-0.015,-0.085,-0.08,-0.135,-0.1
2.142,-0.05,-0.035,0.015,0.042,-0.032,-0.01,-0.06,-0.015,-0.09,-0.08,-0.139,-0.1
2.144,-0.053,-0.038,0.015,0.045,-0.034,-0.011,-0.06,-0.017,-0.087,-0.08,-0.14,-0.1
2.146,-0.055,-0.041,0.015,0.047,-0.035,-0.012,-0.06,-0.023,-0.084,-0.08,-0.14,-0.1
2.148,-0.055,-0.04,0.015,0.047,-0.035,-0.012,-0.06,-0.025,-0.085,-0.08,-0.14,-0.1
2.15,-0.055,-0.04,0.015,0.047,-0.035,-0.012,-0.06,-0.025,-0.085,-0.08,-0.14,-0.1
2.152,-0.051,-0.04,0.011,0.045,-0.031,-0.015,-0.06,-0.029,-0.081,-0.08,-0.14,-0.1
2.154,-0.05,-0.04,0.01,0.045,-0.03,-0.015,-0.06,-0.034,-0.079,-0.08,-0.139,-0.1
2.156,-0.05,-0.04,0.01,0.045,-0.03,-0.015,-0.06,-0.034,-0.081,-0.08,-0.142,-0.1
2.158,-0.05,-0.04,0.01,0.045,-0.03,-0.015,-0.06,-0.037,-0.079,-0.08,-0.145,-0.1
2.16,-0.05,-0.04,0.01,0.045,-0.03,-0.015,-0.06,-0.045,-0.075,-0.08,-0.145,-0.1
2.162,-0.05,-0.04,0.01,0.045,-0.03,-0.015,-0.06,-0.041,-0.075,-0.08,-0.145,-0.1
2.164,-0.05,-0.04,0.01,0.045,-0.03,-0.015,-0.06,-0.039,-0.076,-0.083,-0.145,-0.1
2.166,-0.05,-0.04,0.01,0.045,-0.03,-0.015,-0.06,-0.04,-0.073,-0.085,-0.145,-0.1
2.168,-0.051,-0.041,0.01,0.046,-0.03,-0.015,-0.06,-0.04,-0.07,-0.086,-0.145,-0.1
2.17,-0.055,-0.045,0.01,0.05,-0.032,-0.017,-0.06,-0.04,-0.07,-0.09,-0.145,-0.1
2.172,-0.055,-0.045,0.01,0.05,-0.032,-0.017,-0.06,-0.04,-0.07,-0.091,-0.141,-0.1
2.174,-0.057,-0.047,0.01,0.052,-0.034,-0.018,-0.06,-0.04,-0.067,-0.087,-0.139,-0.097
2.176,-0.062,-0.053,0.01,0.058,-0.036,-0.021,-0.06,-0.04,-0.064,-0.083,-0.141,-0.094
2.178,-0.065,-0.055,0.011,0.06,-0.038,-0.021,-0.06,-0.04,-0.065,-0.08,-0.139,-0.095
2.18,-0.065,-0.05,0.015,0.057,-0.04,-0.017,-0.06,-0.04,-0.065,-0.08,-0.135,-0.095
2.182,-0.061,-0.046,0.015,0.053,-0.038,-0.015,-0.06,-0.04,-0.061,-0.076,-0.135,-0.095
2.184,-0.056,-0.042,0.014,0.049,-0.035,-0.014,-0.06,-0.041,-0.059,-0.071,-0.136,-0.095
2.186,-0.055,-0.038,0.017,0.046,-0.036,-0.01,-0.06,-0.035,-0.061,-0.07,-0.133,-0.095
2.188,-0.054,-0.034,0.02,0.044,-0.037,-0.006,-0.06,-0.022,-0.059,-0.069,-0.13,-0.095
2.19,-0.05,-0.03,0.02,0.04,-0.035,-0.005,-0.06,-0.015,-0.055,-0.06,-0.13,-0.095
2.192,-0.051,-0.029,0.022,0.04,-0.036,-0.004,-0.061,-0.006,-0.055,-0.056,-0.13,-0.095
2.194,-0.041,-0.035,0.006,0.038,-0.023,-0.014,-0.049,-0.003,-0.054,-0.051,-0.13,-0.096
2.196,-0.033,-0.047,-0.014,0.04,-0.01,-0.03,-0.034,0.023,-0.059,-0.051,-0.131,-0.092
2.198,-0.027,-0.065,-0.039,0.046,0.006,-0.052,-0.021,0.073,-0.048,-0.039,-0.137,-0.101
2.2,-0.01,-0.08,-0.07,0.045,0.03,-0.075,-0.005,0.115,-0.005,-0.005,-0.135,-0.125
2.202,-0.005,-0.069,-0.063,0.037,0.03,-0.066,0.008,0.138,0.029,0.024,-0.1,-0.107
2.204,-0.003,-0.059,-0.056,0.031,0.027,-0.057,0.015,0.174,0.086,0.083,-0.063,-0.086
2.206,0.005,-0.049,-0.054,0.022,0.03,-0.051,0.027,0.213,0.151,0.155,-0.022,-0.058
2.208,0.009,-0.039,-0.048,0.015,0.028,-0.044,0.027,0.26,0.219,0.24,0.053,-0.003
2.21,0.01,-0.03,-0.04,0.01,0.025,-0.035,0.005,0.3,0.3,0.36,0.18,0.09
2.212,0.058,0.021,-0.036,-0.039,0.047,-0.008,-0.011,0.24,0.368,0.5,0.356,0.234
2.214,0.131,0.101,-0.03,-0.116,0.081,0.036,-0.07,0.174,0.437,0.642,0.559,0.405
2.216,0.208,0.171,-0.037,-0.19,0.123,0.067,-0.147,0.107,0.498,0.806,0.789,0.602
2.218,0.293,0.222,-0.071,-0.258,0.182,0.076,-0.227,0.017,0.51,0.956,1.019,0.803
2.22,0.39,0.27,-0.12,-0.33,0.255,0.075,-0.325,-0.08,0.465,1.05,1.225,0.99
2.222,0.483,0.313,-0.17,-0.398,0.326,0.072,-0.424,-0.185,0.428,1.159,1.449,1.195
2.224,0.608,0.366,-0.242,-0.486,0.424,0.062,-0.538,-0.285,0.349,1.277,1.703,1.426
2.226,0.751,0.424,-0.327,-0.587,0.538,0.048,-0.712,-0.453,0.172,1.308,1.947,1.676
2.228,0.88,0.496,-0.384,-0.688,0.632,0.056,-0.911,-0.68,-0.062,1.267,2.154,1.926
2.23,1.0,0.6,-0.4,-0.8,0.7,0.1,-1.075,-0.875,-0.275,1.24,2.325,2.155
2.232,1.122,0.708,-0.415,-0.915,0.769,0.146,-1.243,-1.024,-0.481,1.154,2.431,2.336
2.234,1.183,0.782,-0.402,-0.982,0.792,0.19,-1.363,-1.136,-0.706,0.954,2.38,2.4
2.236,1.221,0.838,-0.383,-1.029,0.802,0.227,-1.442,-1.249,-0.909,0.725,2.233,2.38
2.238,1.21,0.849,-0.361,-1.029,0.785,0.243,-1.495,-1.342,-1.04,0.527,2.047,2.294
2.24,1.11,0.79,-0.32,-0.95,0.715,0.235,-1.505,-1.395,-1.115,0.305,1.76,2.09
2.242,1.034,0.743,-0.29,-0.888,0.662,0.226,-1.463,-1.491,-1.203,-0.01,1.321,1.762
2.244,0.87,0.672,-0.198,-0.77,0.534,0.236,-1.374,-1.565,-1.285,-0.344,0.83,1.383
2.246,0.653,0.546,-0.107,-0.599,0.379,0.22,-1.233,-1.547,-1.335,-0.676,0.297,0.951
2.248,0.469,0.437,-0.032,-0.453,0.25,0.203,-1.072,-1.454,-1.316,-0.906,-0.136,0.575
2.25,0.32,0.405,0.085,-0.363,0.117,0.245,-0.93,-1.33,-1.2,-0.92,-0.3,0.38
2.252,0.177,0.366,0.189,-0.272,-0.006,0.277,-0.776,-1.156,-1.024,-0.825,-0.333,0.252
2.254,0.103,0.327,0.223,-0.215,-0.06,0.275,-0.645,-0.976,-0.865,-0.704,-0.307,0.192
2.256,0.081,0.293,0.213,-0.187,-0.066,0.253,-0.54,-0.805,-0.724,-0.588,-0.264,0.153
2.258,0.067,0.263,0.196,-0.165,-0.064,0.229,-0.456,-0.658,-0.588,-0.486,-0.235,0.113
2.26,0.06,0.24,0.18,-0.15,-0.06,0.21,-0.39,-0.55,-0.475,-0.4,-0.22,0.1
2.262,0.055,0.218,0.164,-0.136,-0.055,0.191,-0.333,-0.448,-0.383,-0.33,-0.204,0.087
2.264,0.026,0.176,0.15,-0.101,-0.062,0.163,-0.281,-0.363,-0.321,-0.275,-0.188,0.049
2.266,0.001,0.126,0.124,-0.064,-0.062,0.125,-0.229,-0.286,-0.267,-0.225,-0.173,0.003
2.268,-0.007,0.078,0.085,-0.036,-0.046,0.081,-0.176,-0.204,-0.213,-0.18,-0.163,-0.033
2.27,-0.03,0.025,0.055,0.002,-0.043,0.04,-0.125,-0.125,-0.17,-0.14,-0.16,-0.06
2.272,-0.075,-0.025,0.05,0.05,-0.062,0.012,-0.085,-0.073,-0.124,-0.097,-0.16,-0.086
2.274,-0.102,-0.052,0.05,0.077,-0.075,-0.001,-0.045,-0.017,-0.1,-0.084,-0.16,-0.095
2.276,-0.104,-0.054,0.05,0.079,-0.077,-0.002,-0.024,0.015,-0.09,-0.084,-0.16,-0.096
2.278,-0.099,-0.049,0.05,0.074,-0.075,0.0,-0.026,0.022,-0.076,-0.079,-0.159,-0.101
2.28,-0.1,-0.05,0.05,0.075,-0.075,0.0,-0.025,0.035,-0.06,-0.075,-0.155,-0.105
2.282,-0.1,-0.05,0.05,0.075,-0.075,0.0,-0.021,0.047,-0.047,-0.075,-0.155,-0.109
2.284,-0.099,-0.049,0.05,0.074,-0.074,0.001,-0.02,0.061,-0.041,-0.073,-0.155,-0.114
2.286,-0.105,-0.054,0.05,0.08,-0.078,-0.002,-0.018,0.064,-0.038,-0.067,-0.155,-0.116
2.288,-0.109,-0.06,0.049,0.085,-0.079,-0.005,-0.014,0.059,-0.034,-0.065,-0.155,-0.124
2.29,-0.1,-0.055,0.045,0.077,-0.072,-0.005,-0.015,0.06,-0.03,-0.065,-0.155,-0.14
2.292,-0.099,-0.055,0.045,0.077,-0.072,-0.005,-0.016,0.06,-0.03,-0.061,-0.151,-0.137
2.294,-0.1,-0.055,0.045,0.077,-0.072,-0.005,-0.012,0.06,-0.028,-0.056,-0.15,-0.134
2.296,-0.1,-0.055,0.045,0.077,-0.072,-0.005,-0.01,0.06,-0.022,-0.055,-0.15,-0.135
2.298,-0.1,-0.055,0.045,0.077,-0.072,-0.005,-0.009,0.06,-0.02,-0.054,-0.15,-0.135
2.3,-0.1,-0.055,0.045,0.077,-0.072,-0.005,-0.005,0.06,-0.02,-0.05,-0.15,-0.135
2.302,-0.1,-0.055,0.045,0.077,-0.072,-0.005,-0.005,0.06,-0.016,-0.046,-0.146,-0.135
2.304,-0.101,-0.055,0.046,0.077,-0.073,-0.005,-0.002,0.06,-0.011,-0.042,-0.145,-0.135
2.306,-0.098,-0.055,0.043,0.076,-0.07,-0.006,0.001,0.06,-0.01,-0.038,-0.145,-0.135
2.308,-0.095,-0.055,0.04,0.075,-0.067,-0.007,0.0,0.06,-0.009,-0.034,-0.145,-0.135
2.31,-0.095,-0.055,0.04,0.075,-0.067,-0.007,0.0,0.06,-0.005,-0.03,-0.145,-0.135
2.312,-0.095,-0.055,0.04,0.075,-0.067,-0.007,0.004,0.068,-0.005,-0.03,-0.145,-0.135
2.314,-0.096,-0.056,0.04,0.076,-0.067,-0.007,0.005,0.074,-0.002,-0.027,-0.142,-0.135
2.316,-0.093,-0.053,0.04,0.073,-0.066,-0.006,0.007,0.077,0.0,-0.024,-0.139,-0.135
2.318,-0.09,-0.05,0.04,0.07,-0.065,-0.005,0.011,0.081,0.001,-0.025,-0.14,-0.135
2.32,-0.09,-0.05,0.04,0.07,-0.065,-0.005,0.01,0.085,0.005,-0.025,-0.14,-0.135
2.322,-0.09,-0.05,0.04,0.07,-0.065,-0.005,0.009,0.085,0.005,-0.021,-0.14,-0.135
2.324,-0.091,-0.05,0.041,0.07,-0.066,-0.005,0.013,0.085,0.008,-0.019,-0.14,-0.135
2.326,-0.088,-0.05,0.038,0.069,-0.063,-0.006,0.015,0.085,0.01,-0.021,-0.14,-0.135
2.328,-0.085,-0.05,0.035,0.067,-0.06,-0.007,0.016,0.085,0.011,-0.019,-0.14,-0.135
2.33,-0.085,-0.05,0.035,0.067,-0.06,-0.007,0.02,0.085,0.015,-0.015,-0.14,-0.135
2.332,-0.085,-0.05,0.035,0.067,-0.06,-0.007,0.02,0.089,0.015,-0.015,-0.14,-0.135
2.334,-0.085,-0.05,0.035,0.067,-0.06,-0.007,0.019,0.09,0.017,-0.016,-0.141,-0.135
2.336,-0.085,-0.05,0.035,0.067,-0.06,-0.007,0.022,0.09,0.022,-0.013,-0.138,-0.135
2.338,-0.085,-0.05,0.035,0.067,-0.06,-0.007,0.025,0.09,0.025,-0.01,-0.135,-0.135
2.34,-0.085,-0.05,0.035,0.067,-0.06,-0.007,0.025,0.09,0.025,-0.01,-0.135,-0.135
2.342,-0.085,-0.05,0.035,0.067,-0.06,-0.007,0.029,0.089,0.025,-0.01,-0.135,-0.135
2.344,-0.088,-0.053,0.035,0.07,-0.061,-0.009,0.031,0.1,0.025,-0.007,-0.135,-0.133
2.346,-0.091,-0.056,0.035,0.073,-0.062,-0.011,0.029,0.105,0.025,-0.004,-0.135,-0.141
2.348,-0.089,-0.054,0.035,0.071,-0.062,-0.009,0.031,0.099,0.025,-0.005,-0.135,-0.151
2.35,-0.085,-0.05,0.035,0.067,-0.06,-0.007,0.035,0.1,0.025,-0.005,-0.135,-0.145
2.352,-0.085,-0.05,0.035,0.067,-0.06,-0.007,0.035,0.112,0.025,-0.001,-0.135,-0.141
2.354,-0.082,-0.05,0.032,0.066,-0.057,-0.009,0.035,0.119,0.023,0.001,-0.135,-0.137
2.356,-0.079,-0.05,0.029,0.065,-0.054,-0.01,0.034,0.122,0.03,-0.001,-0.136,-0.133
2.358,-0.08,-0.05,0.03,0.065,-0.055,-0.01,0.029,0.126,0.042,0.001,-0.134,-0.129
2.36,-0.08,-0.05,0.03,0.065,-0.055,-0.01,0.03,0.13,0.045,0.01,-0.125,-0.125
2.362,-0.08,-0.05,0.03,0.065,-0.055,-0.01,0.046,0.134,0.052,0.018,-0.116,-0.125
2.364,-0.08,-0.05,0.03,0.065,-0.055,-0.01,0.055,0.137,0.068,0.026,-0.112,-0.122
2.366,-0.08,-0.05,0.03,0.065,-0.055,-0.01,0.055,0.144,0.079,0.034,-0.107,-0.119
2.368,-0.08,-0.05,0.03,0.065,-0.055,-0.01,0.055,0.151,0.08,0.042,-0.098,-0.12
2.37,-0.08,-0.05,0.03,0.065,-0.055,-0.01,0.055,0.155,0.08,0.05,-0.09,-0.12
2.372,-0.08,-0.05,0.03,0.065,-0.055,-0.01,0.055,0.159,0.08,0.054,-0.086,-0.116
2.374,-0.08,-0.05,0.03,0.065,-0.055,-0.01,0.055,0.164,0.08,0.058,-0.082,-0.115
2.376,-0.08,-0.05,0.03,0.065,-0.055,-0.01,0.055,0.164,0.082,0.06,-0.079,-0.115
2.378,-0.08,-0.05,0.03,0.065,-0.055,-0.01,0.055,0.167,0.086,0.06,-0.08,-0.115
2.38,-0.08,-0.05,0.03,0.065,-0.055,-0.01,0.055,0.18,0.09,0.06,-0.08,-0.115
2.382,-0.08,-0.05,0.03,0.065,-0.055,-0.01,0.055,0.185,0.094,0.06,-0.076,-0.111
2.384,-0.08,-0.05,0.03,0.065,-0.055,-0.01,0.055,0.184,0.099,0.063,-0.074,-0.11
2.386,-0.08,-0.05,0.03,0.065,-0.055,-0.01,0.055,0.187,0.1,0.065,-0.076,-0.11
2.388,-0.08,-0.05,0.03,0.065,-0.055,-0.01,0.055,0.19,0.101,0.065,-0.074,-0.11
2.39,-0.08,-0.05,0.03,0.065,-0.055,-0.01,0.055,0.19,0.105,0.065,-0.07,-0.11
2.392,-0.08,-0.05,0.03,0.065,-0.055,-0.01,0.059,0.202,0.109,0.064,-0.07,-0.106
2.394,-0.08,-0.05,0.03,0.065,-0.055,-0.01,0.06,0.207,0.113,0.074,-0.071,-0.104
2.396,-0.08,-0.05,0.03,0.065,-0.055,-0.01,0.06,0.217,0.117,0.084,-0.068,-0.106
2.398,-0.08,-0.05,0.03,0.065,-0.055,-0.01,0.06,0.233,0.121,0.085,-0.065,-0.104
2.4,-0.08,-0.05,0.03,0.065,-0.055,-0.01,0.06,0.235,0.125,0.085,-0.065,-0.1
2.402,-0.08,-0.05,0.03,0.065,-0.055,-0.01,0.06,0.235,0.125,0.093,-0.065,-0.1
2.404,-0.077,-0.047,0.03,0.062,-0.053,-0.008,0.06,0.238,0.13,0.102,-0.062,-0.1
2.406,-0.074,-0.044,0.03,0.059,-0.052,-0.007,0.06,0.24,0.14,0.108,-0.059,-0.1
2.408,-0.075,-0.045,0.03,0.06,-0.052,-0.007,0.06,0.241,0.146,0.11,-0.06,-0.099
2.41,-0.075,-0.045,0.03,0.06,-0.052,-0.007,0.06,0.245,0.145,0.11,-0.06,-0.095
2.412,-0.071,-0.041,0.03,0.056,-0.05,-0.005,0.06,0.248,0.144,0.109,-0.056,-0.095
2.414,-0.07,-0.04,0.03,0.055,-0.05,-0.005,0.06,0.261,0.15,0.119,-0.054,-0.095
2.416,-0.07,-0.04,0.03,0.055,-0.05,-0.005,0.06,0.277,0.161,0.128,-0.055,-0.095
2.418,-0.07,-0.04,0.03,0.055,-0.05,-0.005,0.06,0.287,0.172,0.131,-0.054,-0.094
2.42,-0.07,-0.04,0.03,0.055,-0.05,-0.005,0.06,0.29,0.175,0.135,-0.05,-0.09
2.422,-0.066,-0.036,0.03,0.051,-0.048,-0.003,0.06,0.294,0.178,0.134,-0.046,-0.09
2.424,-0.064,-0.034,0.03,0.049,-0.047,-0.002,0.06,0.298,0.188,0.147,-0.041,-0.091
2.426,-0.066,-0.036,0.03,0.051,-0.047,-0.002,0.06,0.302,0.201,0.159,-0.04,-0.088
2.428,-0.064,-0.034,0.03,0.049,-0.047,-0.002,0.06,0.306,0.212,0.161,-0.039,-0.085
2.43,-0.06,-0.03,0.03,0.045,-0.045,0.0,0.06,0.31,0.22,0.165,-0.035,-0.085
2.432,-0.06,-0.03,0.03,0.045,-0.045,0.0,0.06,0.309,0.225,0.169,-0.031,-0.085
2.434,-0.059,-0.03,0.029,0.045,-0.044,0.0,0.063,0.316,0.224,0.173,-0.03,-0.086
2.436,-0.062,-0.03,0.032,0.046,-0.047,0.001,0.065,0.322,0.23,0.178,-0.029,-0.083
2.438,-0.064,-0.029,0.035,0.046,-0.05,0.003,0.066,0.328,0.243,0.188,-0.024,-0.08
2.44,-0.06,-0.025,0.035,0.042,-0.047,0.005,0.07,0.34,0.255,0.2,-0.02,-0.08
2.442,-0.064,-0.025,0.039,0.044,-0.051,0.007,0.07,0.344,0.264,0.203,-0.02,-0.08
2.444,-0.068,-0.025,0.043,0.046,-0.055,0.009,0.073,0.348,0.267,0.214,-0.017,-0.08
2.446,-0.073,-0.026,0.048,0.049,-0.06,0.011,0.075,0.352,0.276,0.223,-0.013,-0.078
2.448,-0.073,-0.024,0.05,0.049,-0.061,0.013,0.076,0.357,0.286,0.226,-0.009,-0.075
2.45,-0.065,-0.015,0.05,0.04,-0.057,0.017,0.08,0.365,0.29,0.235,-0.005,-0.075
2.452,-0.069,-0.011,0.058,0.04,-0.063,0.024,0.08,0.369,0.302,0.244,-0.001,-0.075
2.454,-0.07,-0.007,0.063,0.038,-0.066,0.028,0.079,0.372,0.311,0.248,0.003,-0.072
2.456,-0.072,-0.003,0.069,0.037,-0.07,0.033,0.082,0.38,0.32,0.253,0.007,-0.07
2.458,-0.075,0.001,0.077,0.037,-0.076,0.038,0.085,0.393,0.333,0.262,0.011,-0.07
2.46,-0.075,0.005,0.08,0.035,-0.078,0.042,0.085,0.405,0.345,0.27,0.015,-0.07
2.462,-0.075,0.009,0.084,0.033,-0.079,0.046,0.085,0.413,0.353,0.277,0.019,-0.07
2.464,-0.075,0.016,0.091,0.029,-0.083,0.053,0.088,0.422,0.362,0.29,0.023,-0.067
2.466,-0.075,0.023,0.098,0.026,-0.087,0.06,0.092,0.427,0.366,0.298,0.027,-0.064
2.468,-0.075,0.026,0.101,0.025,-0.088,0.063,0.096,0.432,0.373,0.301,0.031,-0.065
2.47,-0.075,0.03,0.105,0.022,-0.09,0.067,0.1,0.44,0.39,0.305,0.035,-0.065
2.472,-0.075,0.034,0.109,0.02,-0.092,0.071,0.105,0.437,0.394,0.309,0.035,-0.065
2.474,-0.078,0.038,0.116,0.02,-0.097,0.077,0.102,0.432,0.398,0.313,0.038,-0.062
2.476,-0.082,0.042,0.124,0.02,-0.103,0.083,0.1,0.428,0.399,0.318,0.041,-0.058
2.478,-0.086,0.045,0.131,0.02,-0.109,0.088,0.099,0.425,0.394,0.32,0.04,-0.054
2.48,-0.09,0.045,0.135,0.022,-0.113,0.09,0.095,0.425,0.39,0.315,0.04,-0.05
2.482,-0.095,0.044,0.139,0.026,-0.118,0.091,0.095,0.421,0.386,0.311,0.044,-0.05
2.484,-0.089,0.054,0.143,0.017,-0.116,0.098,0.096,0.416,0.381,0.307,0.045,-0.048
2.486,-0.084,0.063,0.147,0.01,-0.115,0.105,0.093,0.415,0.38,0.305,0.045,-0.042
2.488,-0.085,0.066,0.151,0.01,-0.119,0.108,0.09,0.415,0.379,0.304,0.044,-0.04
2.49,-0.085,0.07,0.155,0.007,-0.12,0.112,0.09,0.41,0.375,0.3,0.04,-0.04
2.492,-0.081,0.074,0.155,0.003,-0.118,0.114,0.086,0.405,0.371,0.296,0.04,-0.036
2.494,-0.08,0.079,0.159,0.0,-0.12,0.119,0.084,0.406,0.367,0.295,0.041,-0.031
2.496,-0.079,0.078,0.157,0.0,-0.118,0.117,0.086,0.4,0.362,0.294,0.038,-0.03
2.498,-0.074,0.075,0.149,0.0,-0.112,0.111,0.084,0.388,0.36,0.289,0.035,-0.029
2.5,-0.07,0.075,0.145,-0.003,-0.108,0.11,0.075,0.38,0.36,0.285,0.035,-0.025
2.502,-0.066,0.071,0.137,-0.003,-0.101,0.103,0.067,0.368,0.344,0.286,0.035,-0.025
2.504,-0.063,0.069,0.132,-0.004,-0.097,0.1,0.059,0.36,0.33,0.274,0.035,-0.025
2.506,-0.056,0.071,0.126,-0.007,-0.091,0.098,0.051,0.348,0.319,0.258,0.033,-0.025
2.508,-0.049,0.069,0.119,-0.01,-0.084,0.094,0.043,0.332,0.307,0.247,0.03,-0.025
2.51,-0.05,0.065,0.115,-0.008,-0.083,0.09,0.035,0.32,0.295,0.235,0.03,-0.025
2.512,-0.046,0.065,0.111,-0.009,-0.079,0.087,0.032,0.304,0.279,0.223,0.03,-0.025
2.514,-0.041,0.066,0.107,-0.012,-0.075,0.086,0.021,0.291,0.266,0.211,0.027,-0.025
2.516,-0.04,0.063,0.103,-0.012,-0.072,0.083,0.01,0.276,0.251,0.201,0.025,-0.025
2.518,-0.039,0.06,0.099,-0.01,-0.069,0.079,0.003,0.255,0.23,0.193,0.025,-0.025
2.52,-0.035,0.06,0.095,-0.013,-0.065,0.077,-0.005,0.235,0.21,0.185,0.025,-0.025
2.522,-0.035,0.061,0.095,-0.014,-0.065,0.077,-0.013,0.219,0.194,0.177,0.025,-0.025
2.524,-0.036,0.057,0.092,-0.011,-0.064,0.074,-0.021,0.206,0.181,0.169,0.022,-0.026
2.526,-0.033,0.055,0.088,-0.011,-0.061,0.071,-0.029,0.194,0.169,0.161,0.02,-0.023
2.528,-0.03,0.054,0.084,-0.013,-0.057,0.069,-0.036,0.182,0.157,0.152,0.02,-0.02
2.53,-0.03,0.05,0.08,-0.01,-0.055,0.065,-0.04,0.17,0.145,0.14,0.02,-0.02
2.532,-0.026,0.05,0.076,-0.012,-0.051,0.062,-0.044,0.154,0.129,0.132,0.021,-0.02
2.534,-0.024,0.051,0.075,-0.014,-0.05,0.062,-0.05,0.138,0.116,0.121,0.014,-0.02
2.536,-0.026,0.048,0.074,-0.011,-0.05,0.06,-0.063,0.122,0.104,0.111,0.008,-0.02
2.538,-0.024,0.045,0.069,-0.01,-0.047,0.056,-0.077,0.106,0.092,0.102,0.003,-0.02
2.54,-0.02,0.045,0.065,-0.013,-0.043,0.055,-0.08,0.09,0.08,0.09,-0.005,-0.02
2.542,-0.02,0.045,0.065,-0.013,-0.043,0.055,-0.08,0.081,0.068,0.082,-0.009,-0.02
2.544,-0.02,0.042,0.062,-0.011,-0.041,0.052,-0.083,0.077,0.059,0.071,-0.016,-0.02
2.546,-0.021,0.039,0.06,-0.009,-0.04,0.05,-0.086,0.071,0.051,0.06,-0.023,-0.02
2.548,-0.019,0.04,0.059,-0.011,-0.039,0.05,-0.085,0.064,0.043,0.053,-0.026,-0.02
2.55,-0.015,0.04,0.055,-0.013,-0.035,0.047,-0.085,0.06,0.035,0.045,-0.03,-0.02
2.552,-0.023,0.032,0.055,-0.005,-0.039,0.043,-0.089,0.052,0.027,0.033,-0.034,-0.019
2.554,-0.026,0.026,0.053,0.0,-0.04,0.039,-0.091,0.047,0.02,0.024,-0.038,-0.026
2.556,-0.024,0.023,0.047,0.0,-0.036,0.035,-0.09,0.041,0.009,0.016,-0.044,-0.033
2.558,-0.026,0.019,0.045,0.003,-0.035,0.032,-0.091,0.033,-0.002,0.008,-0.052,-0.036
2.56,-0.03,0.015,0.045,0.007,-0.038,0.03,-0.095,0.03,-0.01,0.0,-0.06,-0.04
2.562,-0.03,0.011,0.041,0.009,-0.035,0.026,-0.099,0.026,-0.018,-0.008,-0.069,-0.044
2.564,-0.033,0.008,0.04,0.013,-0.037,0.023,-0.103,0.019,-0.026,-0.013,-0.072,-0.045
2.566,-0.037,0.001,0.038,0.018,-0.038,0.019,-0.105,0.012,-0.034,-0.018,-0.081,-0.047
2.568,-0.041,-0.006,0.035,0.023,-0.037,0.014,-0.105,0.009,-0.042,-0.027,-0.091,-0.051
2.57,-0.045,-0.01,0.035,0.027,-0.04,0.012,-0.105,0.005,-0.05,-0.035,-0.09,-0.055
2.572,-0.044,-0.014,0.031,0.029,-0.037,0.008,-0.105,-0.003,-0.053,-0.039,-0.088,-0.062
2.574,-0.051,-0.021,0.03,0.036,-0.04,0.004,-0.104,-0.009,-0.063,-0.046,-0.105,-0.074
2.576,-0.057,-0.027,0.03,0.042,-0.044,0.001,-0.107,-0.011,-0.075,-0.054,-0.12,-0.084
2.578,-0.061,-0.031,0.03,0.046,-0.046,0.0,-0.11,-0.017,-0.081,-0.062,-0.12,-0.085
2.58,-0.065,-0.035,0.03,0.05,-0.047,-0.002,-0.11,-0.025,-0.085,-0.07,-0.12,-0.085
2.582,-0.061,-0.035,0.026,0.048,-0.043,-0.005,-0.11,-0.029,-0.097,-0.078,-0.124,-0.097
2.584,-0.059,-0.034,0.025,0.046,-0.041,-0.005,-0.11,-0.033,-0.104,-0.083,-0.128,-0.104
2.586,-0.064,-0.039,0.025,0.051,-0.044,-0.007,-0.11,-0.038,-0.107,-0.088,-0.133,-0.105
2.588,-0.072,-0.047,0.025,0.059,-0.048,-0.011,-0.109,-0.048,-0.111,-0.098,-0.144,-0.104
2.59,-0.075,-0.05,0.025,0.062,-0.05,-0.012,-0.105,-0.06,-0.115,-0.11,-0.16,-0.105
2.592,-0.075,-0.054,0.021,0.064,-0.047,-0.016,-0.105,-0.065,-0.119,-0.115,-0.165,-0.118
2.594,-0.077,-0.058,0.02,0.068,-0.048,-0.019,-0.106,-0.064,-0.124,-0.114,-0.165,-0.12
2.596,-0.083,-0.063,0.02,0.073,-0.051,-0.021,-0.103,-0.069,-0.123,-0.119,-0.165,-0.126
2.598,-0.084,-0.065,0.02,0.074,-0.052,-0.022,-0.1,-0.075,-0.12,-0.125,-0.165,-0.136
2.6,-0.08,-0.06,0.02,0.07,-0.05,-0.02,-0.1,-0.07,-0.12,-0.12,-0.165,-0.13
2.602,-0.08,-0.06,0.02,0.07,-0.05,-0.02,-0.1,-0.066,-0.116,-0.116,-0.165,-0.129
2.604,-0.078,-0.061,0.017,0.069,-0.047,-0.022,-0.097,-0.062,-0.115,-0.112,-0.166,-0.131
2.606,-0.073,-0.058,0.014,0.065,-0.043,-0.021,-0.094,-0.058,-0.113,-0.11,-0.163,-0.128
2.608,-0.07,-0.055,0.015,0.062,-0.042,-0.02,-0.095,-0.054,-0.11,-0.109,-0.16,-0.125
2.61,-0.07,-0.055,0.015,0.062,-0.042,-0.02,-0.095,-0.05,-0.11,-0.105,-0.16,-0.125
2.612,-0.071,-0.055,0.015,0.063,-0.043,-0.02,-0.091,-0.046,-0.106,-0.101,-0.156,-0.125
2.614,-0.064,-0.052,0.012,0.058,-0.038,-0.02,-0.089,-0.042,-0.105,-0.1,-0.155,-0.122
2.616,-0.059,-0.049,0.009,0.054,-0.034,-0.02,-0.091,-0.038,-0.103,-0.099,-0.153,-0.119
2.618,-0.06,-0.05,0.01,0.055,-0.035,-0.02,-0.089,-0.034,-0.1,-0.094,-0.15,-0.12
2.62,-0.06,-0.05,0.01,0.055,-0.035,-0.02,-0.085,-0.03,-0.1,-0.09,-0.15,-0.12
2.622,-0.056,-0.046,0.01,0.051,-0.032,-0.018,-0.085,-0.03,-0.096,-0.09,-0.146,-0.116
2.624,-0.054,-0.044,0.01,0.049,-0.032,-0.017,-0.086,-0.028,-0.095,-0.087,-0.145,-0.114
2.626,-0.056,-0.046,0.01,0.051,-0.032,-0.017,-0.083,-0.022,-0.093,-0.085,-0.143,-0.116
2.628,-0.054,-0.044,0.01,0.049,-0.032,-0.017,-0.08,-0.02,-0.09,-0.084,-0.14,-0.114
2.63,-0.05,-0.04,0.01,0.045,-0.03,-0.015,-0.08,-0.02,-0.09,-0.08,-0.14,-0.11
2.632,-0.05,-0.04,0.01,0.045,-0.03,-0.015,-0.08,-0.016,-0.086,-0.08,-0.136,-0.11
2.634,-0.051,-0.041,0.01,0.046,-0.03,-0.015,-0.077,-0.011,-0.085,-0.077,-0.135,-0.111
2.636,-0.048,-0.038,0.01,0.043,-0.029,-0.014,-0.074,-0.01,-0.082,-0.075,-0.133,-0.108
2.638,-0.044,-0.035,0.01,0.039,-0.026,-0.012,-0.075,-0.009,-0.073,-0.074,-0.13,-0.105
2.64,-0.045,-0.035,0.01,0.04,-0.027,-0.012,-0.075,-0.005,-0.07,-0.065,-0.13,-0.105
2.642,-0.053,-0.035,0.018,0.044,-0.035,-0.008,-0.075,-0.001,-0.067,-0.056,-0.122,-0.105
2.644,-0.056,-0.032,0.024,0.044,-0.04,-0.003,-0.076,0.003,-0.059,-0.052,-0.116,-0.102
2.646,-0.053,-0.029,0.023,0.041,-0.038,-0.003,-0.073,0.005,-0.052,-0.047,-0.114,-0.1
2.648,-0.05,-0.03,0.02,0.04,-0.035,-0.005,-0.07,0.006,-0.049,-0.038,-0.108,-0.1
2.65,-0.05,-0.03,0.02,0.04,-0.035,-0.005,-0.07,0.01,-0.045,-0.03,-0.1,-0.1
2.652,-0.05,-0.03,0.02,0.04,-0.035,-0.005,-0.07,0.014,-0.041,-0.026,-0.096,-0.1
2.654,-0.05,-0.03,0.02,0.04,-0.035,-0.005,-0.07,0.015,-0.04,-0.022,-0.092,-0.097
2.656,-0.05,-0.03,0.02,0.04,-0.035,-0.005,-0.07,0.016,-0.04,-0.02,-0.088,-0.094
2.658,-0.05,-0.03,0.02,0.04,-0.035,-0.005,-0.07,0.021,-0.04,-0.02,-0.085,-0.095
2.66,-0.055,-0.035,0.02,0.045,-0.037,-0.007,-0.07,0.025,-0.04,-0.02,-0.085,-0.095
2.662,-0.069,-0.048,0.02,0.058,-0.044,-0.014,-0.066,0.025,-0.04,-0.02,-0.085,-0.095
2.664,-0.065,-0.048,0.017,0.056,-0.041,-0.016,-0.065,0.028,-0.04,-0.021,-0.085,-0.096
2.666,-0.059,-0.044,0.014,0.051,-0.036,-0.015,-0.065,0.03,-0.04,-0.018,-0.085,-0.093
2.668,-0.06,-0.045,0.015,0.052,-0.037,-0.015,-0.065,0.03,-0.039,-0.015,-0.084,-0.09
2.67,-0.06,-0.045,0.015,0.052,-0.037,-0.015,-0.065,0.035,-0.035,-0.015,-0.08,-0.09
2.672,-0.06,-0.045,0.015,0.052,-0.037,-0.015,-0.065,0.04,-0.035,-0.015,-0.08,-0.09
2.674,-0.061,-0.046,0.015,0.053,-0.037,-0.015,-0.062,0.037,-0.035,-0.015,-0.08,-0.09
2.676,-0.058,-0.043,0.015,0.05,-0.036,-0.014,-0.059,0.034,-0.035,-0.015,-0.08,-0.09
2.678,-0.055,-0.04,0.015,0.047,-0.035,-0.012,-0.06,0.035,-0.035,-0.015,-0.08,-0.089
2.68,-0.055,-0.04,0.015,0.047,-0.035,-0.012,-0.06,0.035,-0.035,-0.015,-0.08,-0.085
2.682,-0.051,-0.04,0.011,0.045,-0.031,-0.015,-0.06,0.031,-0.035,-0.011,-0.08,-0.085
2.684,-0.05,-0.04,0.01,0.045,-0.03,-0.015,-0.06,0.029,-0.036,-0.01,-0.077,-0.085
2.686,-0.05,-0.04,0.01,0.045,-0.03,-0.015,-0.06,0.031,-0.033,-0.01,-0.074,-0.085
2.688,-0.05,-0.04,0.01,0.045,-0.03,-0.015,-0.061,0.029,-0.03,-0.01,-0.075,-0.085
2.69,-0.05,-0.04,0.01,0.045,-0.03,-0.015,-0.065,0.025,-0.03,-0.01,-0.075,-0.085
2.692,-0.046,-0.036,0.01,0.041,-0.028,-0.012,-0.065,0.025,-0.03,-0.01,-0.075,-0.085
2.694,-0.045,-0.035,0.01,0.04,-0.027,-0.012,-0.065,0.026,-0.03,-0.007,-0.076,-0.086
2.696,-0.045,-0.035,0.01,0.04,-0.027,-0.012,-0.065,0.023,-0.03,-0.004,-0.073,-0.083
2.698,-0.045,-0.035,0.01,0.04,-0.027,-0.012,-0.065,0.02,-0.03,-0.005,-0.07,-0.08
2.7,-0.045,-0.035,0.01,0.04,-0.027,-0.012,-0.065,0.02,-0.03,-0.005,-0.07,-0.08
2.702,-0.05,-0.035,0.014,0.042,-0.031,-0.011,-0.069,0.02,-0.03,-0.005,-0.07,-0.08
2.704,-0.047,-0.032,0.016,0.039,-0.031,-0.008,-0.07,0.017,-0.029,-0.005,-0.07,-0.08
2.706,-0.044,-0.029,0.014,0.036,-0.029,-0.007,-0.07,0.014,-0.032,-0.005,-0.07,-0.08
2.708,-0.046,-0.03,0.016,0.038,-0.031,-0.007,-0.07,0.015,-0.035,-0.006,-0.07,-0.08
2.71,-0.05,-0.03,0.02,0.04,-0.035,-0.005,-0.07,0.015,-0.035,-0.01,-0.07,-0.08
2.712,-0.05,-0.03,0.02,0.04,-0.035,-0.005,-0.07,0.011,-0.035,-0.015,-0.074,-0.08
2.714,-0.05,-0.03,0.019,0.04,-0.034,-0.005,-0.073,0.009,-0.035,-0.015,-0.076,-0.077
2.716,-0.052,-0.03,0.022,0.04,-0.037,-0.004,-0.076,0.011,-0.035,-0.017,-0.074,-0.074
2.718,-0.056,-0.031,0.025,0.043,-0.041,-0.002,-0.075,0.009,-0.035,-0.02,-0.076,-0.075
2.72,-0.06,-0.035,0.025,0.047,-0.042,-0.005,-0.075,0.005,-0.035,-0.02,-0.08,-0.075
2.722,-0.06,-0.035,0.025,0.047,-0.042,-0.005,-0.075,0.005,-0.039,-0.024,-0.08,-0.075
2.724,-0.06,-0.034,0.025,0.047,-0.042,-0.004,-0.075,0.005,-0.04,-0.029,-0.079,-0.075
2.726,-0.06,-0.037,0.023,0.048,-0.042,-0.007,-0.075,0.005,-0.041,-0.03,-0.082,-0.075
2.728,-0.059,-0.04,0.019,0.05,-0.039,-0.011,-0.075,0.004,-0.046,-0.031,-0.085,-0.075
2.73,-0.055,-0.04,0.015,0.047,-0.035,-0.012,-0.075,0.0,-0.05,-0.035,-0.085,-0.075
2.732,-0.05,-0.04,0.011,0.045,-0.03,-0.014,-0.075,0.0,-0.054,-0.035,-0.089,-0.075
2.734,-0.053,-0.043,0.01,0.048,-0.031,-0.016,-0.075,0.0,-0.058,-0.038,-0.09,-0.078
2.736,-0.056,-0.047,0.009,0.051,-0.032,-0.019,-0.074,0.0,-0.062,-0.042,-0.093,-0.082
2.738,-0.055,-0.051,0.004,0.053,-0.029,-0.023,-0.078,0.0,-0.067,-0.046,-0.102,-0.086
2.74,-0.055,-0.055,0.0,0.055,-0.027,-0.027,-0.09,0.0,-0.075,-0.05,-0.105,-0.09
2.742,-0.055,-0.055,0.0,0.055,-0.027,-0.027,-0.086,0.0,-0.08,-0.05,-0.105,-0.09
2.744,-0.052,-0.054,-0.002,0.054,-0.024,-0.028,-0.084,0.001,-0.08,-0.05,-0.105,-0.093
2.746,-0.049,-0.057,-0.008,0.053,-0.021,-0.032,-0.086,-0.002,-0.08,-0.05,-0.105,-0.095
2.748,-0.05,-0.06,-0.01,0.055,-0.02,-0.035,-0.084,-0.005,-0.08,-0.051,-0.105,-0.096
2.75,-0.05,-0.06,-0.01,0.055,-0.02,-0.035,-0.08,-0.005,-0.08,-0.055,-0.105,-0.1
2.752,-0.045,-0.06,-0.014,0.053,-0.016,-0.036,-0.08,-0.005,-0.08,-0.055,-0.109,-0.1
2.754,-0.048,-0.063,-0.015,0.056,-0.016,-0.039,-0.081,-0.005,-0.079,-0.054,-0.11,-0.1
2.756,-0.051,-0.066,-0.015,0.059,-0.017,-0.04,-0.078,-0.005,-0.082,-0.057,-0.11,-0.1
2.758,-0.05,-0.065,-0.015,0.058,-0.017,-0.04,-0.075,-0.005,-0.085,-0.06,-0.11,-0.1
2.76,-0.05,-0.065,-0.015,0.058,-0.017,-0.04,-0.075,-0.005,-0.085,-0.06,-0.11,-0.1
2.762,-0.05,-0.065,-0.015,0.058,-0.017,-0.04,-0.075,-0.005,-0.089,-0.059,-0.11,-0.1
2.764,-0.047,-0.065,-0.018,0.056,-0.014,-0.041,-0.072,-0.008,-0.09,-0.063,-0.113,-0.103
2.766,-0.044,-0.065,-0.021,0.054,-0.011,-0.042,-0.069,-0.011,-0.092,-0.065,-0.116,-0.105
2.768,-0.046,-0.066,-0.02,0.056,-0.013,-0.042,-0.07,-0.01,-0.095,-0.066,-0.115,-0.105
2.77,-0.05,-0.07,-0.02,0.06,-0.015,-0.045,-0.07,-0.01,-0.095,-0.07,-0.115,-0.105
2.772,-0.05,-0.07,-0.02,0.06,-0.015,-0.045,-0.066,-0.01,-0.095,-0.07,-0.115,-0.104
2.774,-0.052,-0.073,-0.021,0.063,-0.016,-0.046,-0.064,-0.01,-0.095,-0.073,-0.118,-0.114
2.776,-0.058,-0.076,-0.018,0.067,-0.019,-0.047,-0.066,-0.01,-0.095,-0.076,-0.121,-0.124
2.778,-0.059,-0.074,-0.015,0.067,-0.022,-0.044,-0.064,-0.01,-0.095,-0.075,-0.12,-0.125
2.78,-0.055,-0.07,-0.015,0.063,-0.02,-0.042,-0.06,-0.01,-0.095,-0.075,-0.12,-0.125
2.782,-0.055,-0.07,-0.015,0.063,-0.02,-0.042,-0.06,-0.01,-0.095,-0.075,-0.12,-0.125
2.784,-0.055,-0.07,-0.015,0.063,-0.02,-0.042,-0.06,-0.013,-0.095,-0.075,-0.12,-0.125
2.786,-0.055,-0.07,-0.015,0.063,-0.02,-0.042,-0.06,-0.016,-0.095,-0.075,-0.12,-0.125
2.788,-0.055,-0.07,-0.015,0.063,-0.02,-0.042,-0.06,-0.015,-0.095,-0.075,-0.12,-0.125
2.79,-0.055,-0.07,-0.015,0.063,-0.02,-0.042,-0.06,-0.015,-0.095,-0.075,-0.12,-0.125
2.792,-0.055,-0.07,-0.015,0.063,-0.02,-0.042,-0.06,-0.015,-0.095,-0.075,-0.12,-0.125
2.794,-0.056,-0.071,-0.015,0.064,-0.02,-0.042,-0.06,-0.014,-0.095,-0.074,-0.12,-0.125
2.796,-0.053,-0.068,-0.015,0.061,-0.019,-0.041,-0.06,-0.017,-0.095,-0.077,-0.12,-0.125
2.798,-0.05,-0.065,-0.015,0.058,-0.017,-0.04,-0.06,-0.02,-0.095,-0.08,-0.121,-0.126
2.8,-0.05,-0.065,-0.015,0.058,-0.017,-0.04,-0.06,-0.02,-0.095,-0.08,-0.125,-0.13
2.802,-0.05,-0.065,-0.015,0.058,-0.017,-0.04,-0.06,-0.02,-0.095,-0.08,-0.125,-0.13
2.804,-0.053,-0.065,-0.012,0.059,-0.02,-0.038,-0.06,-0.02,-0.095,-0.08,-0.125,-0.13
2.806,-0.056,-0.065,-0.009,0.06,-0.023,-0.037,-0.06,-0.02,-0.095,-0.08,-0.125,-0.13
2.808,-0.055,-0.065,-0.01,0.06,-0.022,-0.037,-0.06,-0.02,-0.095,-0.08,-0.125,-0.13
2.81,-0.055,-0.065,-0.01,0.06,-0.022,-0.037,-0.06,-0.02,-0.095,-0.08,-0.125,-0.13
2.812,-0.055,-0.065,-0.01,0.06,-0.022,-0.037,-0.06,-0.024,-0.095,-0.08,-0.125,-0.13
2.814,-0.055,-0.065,-0.01,0.06,-0.022,-0.037,-0.06,-0.025,-0.095,-0.08,-0.128,-0.13
2.816,-0.054,-0.064,-0.01,0.059,-0.021,-0.036,-0.06,-0.025,-0.096,-0.08,-0.13,-0.13
2.818,-0.058,-0.068,-0.01,0.063,-0.023,-0.038,-0.06,-0.025,-0.102,-0.081,-0.13,-0.13
2.82,-0.07,-0.08,-0.01,0.075,-0.03,-0.045,-0.06,-0.025,-0.11,-0.085,-0.135,-0.13
2.822,-0.066,-0.076,-0.01,0.071,-0.028,-0.043,-0.06,-0.025,-0.115,-0.085,-0.14,-0.134
2.824,-0.064,-0.074,-0.01,0.069,-0.026,-0.042,-0.06,-0.028,-0.115,-0.085,-0.137,-0.135
2.826,-0.066,-0.076,-0.01,0.071,-0.027,-0.042,-0.06,-0.031,-0.114,-0.085,-0.134,-0.137
2.828,-0.064,-0.074,-0.01,0.069,-0.026,-0.042,-0.06,-0.03,-0.116,-0.085,-0.135,-0.141
2.83,-0.06,-0.07,-0.01,0.065,-0.025,-0.04,-0.06,-0.03,-0.12,-0.085,-0.135,-0.14
2.832,-0.064,-0.07,-0.006,0.067,-0.029,-0.037,-0.06,-0.03,-0.12,-0.085,-0.135,-0.136
2.834,-0.065,-0.07,-0.005,0.068,-0.03,-0.037,-0.06,-0.03,-0.12,-0.082,-0.135,-0.135
2.836,-0.067,-0.07,-0.003,0.069,-0.032,-0.037,-0.06,-0.03,-0.118,-0.079,-0.135,-0.133
2.838,-0.069,-0.069,0.0,0.069,-0.035,-0.034,-0.06,-0.029,-0.115,-0.08,-0.135,-0.129
2.84,-0.065,-0.065,0.0,0.065,-0.032,-0.032,-0.06,-0.025,-0.115,-0.08,-0.135,-0.13
2.842,-0.069,-0.065,0.004,0.066,-0.036,-0.03,-0.064,-0.025,-0.111,-0.08,-0.135,-0.13
2.844,-0.071,-0.066,0.005,0.067,-0.037,-0.03,-0.065,-0.025,-0.11,-0.08,-0.135,-0.127
2.846,-0.07,-0.063,0.007,0.066,-0.038,-0.028,-0.065,-0.025,-0.108,-0.08,-0.135,-0.124
2.848,-0.07,-0.06,0.01,0.065,-0.04,-0.025,-0.065,-0.025,-0.105,-0.08,-0.135,-0.125
2.85,-0.07,-0.06,0.01,0.065,-0.04,-0.025,-0.065,-0.025,-0.105,-0.08,-0.135,-0.125
2.852,-0.074,-0.06,0.015,0.067,-0.044,-0.022,-0.065,-0.021,-0.101,-0.076,-0.135,-0.121
2.854,-0.074,-0.06,0.013,0.067,-0.044,-0.023,-0.065,-0.02,-0.1,-0.075,-0.135,-0.119
2.856,-0.08,-0.058,0.022,0.069,-0.05,-0.018,-0.065,-0.02,-0.098,-0.075,-0.135,-0.121
2.858,-0.084,-0.055,0.029,0.069,-0.056,-0.012,-0.065,-0.02,-0.095,-0.075,-0.135,-0.119
2.86,-0.07,-0.055,0.015,0.062,-0.042,-0.02,-0.065,-0.02,-0.095,-0.075,-0.135,-0.115
2.862,-0.058,-0.055,0.003,0.057,-0.03,-0.026,-0.065,-0.021,-0.091,-0.075,-0.135,-0.115
2.864,-0.044,-0.053,-0.01,0.049,-0.016,-0.031,-0.067,-0.011,-0.09,-0.074,-0.135,-0.114
2.866,-0.043,-0.061,-0.018,0.052,-0.012,-0.039,-0.059,-0.002,-0.087,-0.077,-0.135,-0.12
2.868,-0.042,-0.08,-0.038,0.061,-0.001,-0.059,-0.041,0.02,-0.086,-0.071,-0.135,-0.133
2.87,-0.02,-0.1,-0.08,0.06,0.03,-0.09,-0.025,0.075,-0.085,-0.05,-0.14,-0.145
2.872,-0.015,-0.115,-0.1,0.065,0.043,-0.107,-0.009,0.125,-0.042,-0.038,-0.145,-0.165
2.874,-0.01,-0.102,-0.092,0.056,0.042,-0.096,0.006,0.163,0.001,0.012,-0.107,-0.147
2.876,-0.002,-0.082,-0.08,0.042,0.039,-0.08,0.012,0.196,0.057,0.073,-0.059,-0.119
2.878,0.009,-0.065,-0.073,0.029,0.041,-0.068,0.027,0.246,0.135,0.141,-0.01,-0.09
2.88,0.025,-0.04,-0.065,0.008,0.045,-0.052,0.045,0.295,0.215,0.245,0.08,-0.025
2.882,0.039,-0.018,-0.057,-0.01,0.048,-0.037,0.002,0.269,0.288,0.358,0.211,0.073
2.884,0.076,0.026,-0.05,-0.051,0.063,-0.012,-0.036,0.246,0.353,0.499,0.38,0.22
2.886,0.137,0.099,-0.038,-0.117,0.088,0.03,-0.1,0.181,0.419,0.648,0.575,0.392
2.888,0.209,0.17,-0.038,-0.189,0.123,0.066,-0.198,0.069,0.45,0.79,0.791,0.579
2.89,0.29,0.215,-0.075,-0.252,0.182,0.07,-0.285,-0.025,0.42,0.92,1.01,0.775
2.892,0.385,0.25,-0.135,-0.318,0.26,0.057,-0.384,-0.129,0.396,1.016,1.209,0.95
2.894,0.485,0.295,-0.19,-0.39,0.338,0.052,-0.487,-0.228,0.36,1.122,1.427,1.145
2.896,0.602,0.345,-0.257,-0.473,0.429,0.044,-0.614,-0.356,0.238,1.201,1.663,1.37
2.898,0.732,0.4,-0.332,-0.566,0.532,0.034,-0.779,-0.541,0.03,1.212,1.89,1.612
2.9,0.86,0.48,-0.38,-0.67,0.62,0.05,-0.955,-0.745,-0.185,1.185,2.095,1.86
2.902,0.995,0.593,-0.402,-0.794,0.699,0.095,-1.115,-0.901,-0.369,1.17,2.271,2.092
2.904,1.13,0.685,-0.444,-0.908,0.787,0.121,-1.278,-1.033,-0.564,1.092,2.369,2.28
2.906,1.209,0.751,-0.459,-0.98,0.834,0.146,-1.404,-1.153,-0.777,0.899,2.317,2.32
