time,I,II,III,AVR,AVL,AVF,V1,V2,V3,V4,V5,V6
0.0,-0.03,-0.03,0.0,0.03,-0.015,-0.015,-0.025,-0.045,0.025,-0.04,-0.04,-0.045
0.002,-0.03,-0.03,0.0,0.03,-0.015,-0.015,-0.025,-0.045,0.025,-0.04,-0.04,-0.045
0.004,-0.03,-0.03,0.0,0.03,-0.015,-0.015,-0.025,-0.045,0.025,-0.04,-0.04,-0.045
0.006,-0.03,-0.03,0.0,0.03,-0.015,-0.015,-0.025,-0.045,0.025,-0.04,-0.04,-0.045
0.008,-0.03,-0.03,0.0,0.03,-0.015,-0.015,-0.025,-0.045,0.025,-0.04,-0.04,-0.045
0.01,-0.03,-0.03,0.0,0.03,-0.015,-0.015,-0.025,-0.045,0.025,-0.04,-0.04,-0.045
0.012,-0.03,-0.026,0.004,0.027,-0.017,-0.011,-0.017,-0.045,0.025,-0.036,-0.036,-0.045
0.014,-0.03,-0.026,0.004,0.028,-0.017,-0.011,-0.009,-0.046,0.025,-0.036,-0.031,-0.042
0.016,-0.029,-0.02,0.008,0.024,-0.018,-0.006,-0.001,-0.042,0.024,-0.032,-0.03,-0.037
0.018,-0.023,-0.007,0.016,0.014,-0.02,0.004,0.007,-0.033,0.035,-0.023,-0.029,-0.035
0.02,-0.015,0.005,0.02,0.005,-0.018,0.012,0.015,-0.025,0.06,-0.02,-0.025,-0.035
0.022,-0.012,0.017,0.028,-0.002,-0.02,0.022,0.023,-0.017,0.065,-0.017,-0.02,-0.031
0.024,-0.002,0.03,0.033,-0.014,-0.018,0.032,0.029,-0.009,0.068,-0.009,-0.02,-0.03
0.026,-0.003,0.036,0.039,-0.017,-0.021,0.037,0.029,-0.001,0.071,-0.002,-0.018,-0.028
0.028,-0.002,0.044,0.046,-0.021,-0.024,0.044,0.024,0.007,0.07,0.001,-0.015,-0.025
0.03,0.01,0.06,0.05,-0.035,-0.02,0.055,0.025,0.015,0.07,0.005,-0.015,-0.025
0.032,-0.01,0.057,0.067,-0.023,-0.039,0.061,0.04,0.023,0.078,0.009,-0.015,-0.025
0.034,-0.015,0.054,0.069,-0.02,-0.042,0.061,0.06,0.031,0.087,0.013,-0.015,-0.025
0.036,-0.007,0.056,0.062,-0.025,-0.035,0.059,0.065,0.039,0.092,0.017,-0.015,-0.025
0.038,-0.005,0.054,0.059,-0.025,-0.032,0.056,0.059,0.047,0.097,0.021,-0.015,-0.025
0.04,-0.005,0.05,0.055,-0.023,-0.03,0.052,0.06,0.055,0.105,0.025,-0.015,-0.025
0.042,-0.005,0.05,0.055,-0.023,-0.03,0.052,0.056,0.063,0.11,0.029,-0.011,-0.025
0.044,-0.002,0.051,0.053,-0.024,-0.027,0.051,0.055,0.073,0.11,0.034,-0.01,-0.025
0.046,0.001,0.048,0.047,-0.024,-0.024,0.048,0.053,0.073,0.11,0.033,-0.01,-0.025
0.048,0.0,0.045,0.045,-0.023,-0.023,0.045,0.05,0.063,0.11,0.03,-0.01,-0.025
0.05,0.0,0.045,0.045,-0.023,-0.023,0.045,0.05,0.055,0.11,0.03,-0.01,-0.025
0.052,0.004,0.045,0.041,-0.025,-0.019,0.043,0.039,0.047,0.11,0.026,-0.01,-0.025
0.054,0.006,0.042,0.036,-0.024,-0.016,0.039,0.026,0.039,0.111,0.024,-0.011,-0.022
0.056,0.004,0.039,0.035,-0.023,-0.015,0.037,0.014,0.031,0.105,0.026,-0.008,-0.019
0.058,0.006,0.04,0.034,-0.023,-0.014,0.037,0.003,0.023,0.092,0.024,-0.005,-0.02
0.06,0.01,0.04,0.03,-0.025,-0.01,0.035,-0.005,0.015,0.085,0.02,-0.005,-0.02
0.062,0.01,0.036,0.026,-0.023,-0.008,0.031,-0.021,0.003,0.077,0.02,-0.005,-0.02
0.064,0.012,0.034,0.022,-0.024,-0.005,0.028,-0.037,-0.007,0.069,0.017,-0.005,-0.02
0.066,0.018,0.036,0.018,-0.027,0.0,0.026,-0.052,-0.013,0.061,0.014,-0.005,-0.02
0.068,0.019,0.034,0.015,-0.027,0.002,0.024,-0.07,-0.023,0.053,0.015,-0.005,-0.02
0.07,0.015,0.03,0.015,-0.023,0.0,0.022,-0.085,-0.035,0.045,0.015,-0.005,-0.02
0.072,0.018,0.03,0.011,-0.024,0.004,0.02,-0.082,-0.044,0.037,0.011,-0.009,-0.02
0.074,0.024,0.031,0.007,-0.028,0.009,0.019,-0.079,-0.049,0.032,0.01,-0.01,-0.02
0.076,0.025,0.028,0.003,-0.027,0.011,0.015,-0.081,-0.064,0.029,0.01,-0.01,-0.02
0.078,0.026,0.025,-0.001,-0.025,0.013,0.011,-0.079,-0.076,0.023,0.01,-0.01,-0.02
0.08,0.03,0.025,-0.005,-0.027,0.017,0.01,-0.075,-0.07,0.015,0.01,-0.01,-0.02
0.082,0.029,0.025,-0.004,-0.027,0.016,0.01,-0.075,-0.07,0.011,0.006,-0.014,-0.024
0.084,0.036,0.025,-0.011,-0.03,0.023,0.007,-0.076,-0.07,0.007,0.005,-0.015,-0.025
0.086,0.041,0.023,-0.018,-0.032,0.029,0.003,-0.073,-0.07,0.003,0.005,-0.015,-0.025
0.088,0.04,0.019,-0.021,-0.029,0.03,-0.001,-0.07,-0.07,0.0,0.005,-0.015,-0.025
0.09,0.04,0.015,-0.025,-0.027,0.032,-0.005,-0.07,-0.07,0.0,0.005,-0.015,-0.025
0.092,0.04,0.011,-0.029,-0.025,0.034,-0.009,-0.07,-0.07,0.0,0.005,-0.015,-0.025
0.094,0.04,0.007,-0.033,-0.023,0.036,-0.013,-0.071,-0.071,0.0,0.002,-0.018,-0.028
0.096,0.04,0.003,-0.037,-0.021,0.038,-0.017,-0.066,-0.068,0.0,-0.001,-0.021,-0.031
0.098,0.04,-0.001,-0.041,-0.02,0.041,-0.021,-0.059,-0.065,0.0,0.0,-0.02,-0.03
0.1,0.04,-0.005,-0.045,-0.017,0.043,-0.025,-0.055,-0.065,0.0,0.0,-0.02,-0.03
0.102,0.032,-0.013,-0.045,-0.009,0.039,-0.029,-0.047,-0.065,0.0,0.0,-0.02,-0.03
0.104,0.027,-0.018,-0.045,-0.004,0.036,-0.031,-0.042,-0.065,-0.003,0.0,-0.023,-0.029
0.106,0.023,-0.022,-0.045,0.0,0.034,-0.033,-0.036,-0.065,-0.006,-0.002,-0.026,-0.032
0.108,0.02,-0.026,-0.046,0.004,0.033,-0.036,-0.029,-0.065,-0.005,-0.006,-0.025,-0.035
0.11,0.02,-0.03,-0.05,0.005,0.035,-0.04,-0.025,-0.065,-0.005,-0.01,-0.025,-0.035
0.112,0.016,-0.034,-0.05,0.009,0.034,-0.042,-0.021,-0.065,-0.005,-0.014,-0.025,-0.039
0.114,0.012,-0.038,-0.05,0.013,0.031,-0.044,-0.02,-0.062,-0.005,-0.018,-0.024,-0.04
0.116,0.009,-0.041,-0.05,0.016,0.03,-0.045,-0.02,-0.059,-0.005,-0.022,-0.029,-0.042
0.118,0.002,-0.048,-0.05,0.023,0.026,-0.048,-0.02,-0.06,-0.005,-0.026,-0.036,-0.046
0.12,-0.01,-0.06,-0.05,0.035,0.02,-0.055,-0.02,-0.06,-0.005,-0.03,-0.04,-0.05
0.122,-0.01,-0.064,-0.054,0.037,0.023,-0.059,-0.02,-0.06,-0.009,-0.038,-0.056,-0.062
0.124,-0.017,-0.072,-0.055,0.045,0.02,-0.063,-0.02,-0.06,-0.013,-0.043,-0.065,-0.072
0.126,-0.035,-0.09,-0.055,0.063,0.01,-0.072,-0.02,-0.06,-0.017,-0.047,-0.065,-0.078
0.128,-0.046,-0.101,-0.055,0.074,0.005,-0.077,-0.02,-0.06,-0.021,-0.05,-0.065,-0.08
0.13,-0.04,-0.095,-0.055,0.068,0.008,-0.075,-0.02,-0.06,-0.025,-0.05,-0.065,-0.08
0.132,-0.04,-0.095,-0.055,0.068,0.008,-0.075,-0.02,-0.06,-0.025,-0.054,-0.064,-0.08
0.134,-0.04,-0.095,-0.055,0.068,0.008,-0.075,-0.02,-0.063,-0.028,-0.055,-0.071,-0.08
0.136,-0.04,-0.095,-0.055,0.068,0.008,-0.075,-0.02,-0.066,-0.032,-0.057,-0.078,-0.08
0.138,-0.039,-0.094,-0.055,0.067,0.008,-0.075,-0.019,-0.065,-0.036,-0.06,-0.08,-0.08
0.14,-0.035,-0.09,-0.055,0.063,0.01,-0.072,-0.015,-0.065,-0.04,-0.06,-0.08,-0.08
0.142,-0.035,-0.09,-0.055,0.063,0.01,-0.072,-0.015,-0.065,-0.044,-0.06,-0.08,-0.08
0.144,-0.035,-0.09,-0.055,0.063,0.01,-0.072,-0.015,-0.065,-0.045,-0.06,-0.08,-0.08
0.146,-0.035,-0.09,-0.055,0.063,0.01,-0.072,-0.015,-0.065,-0.047,-0.06,-0.08,-0.08
0.148,-0.034,-0.089,-0.055,0.062,0.01,-0.072,-0.015,-0.065,-0.05,-0.06,-0.08,-0.08
0.15,-0.03,-0.085,-0.055,0.058,0.013,-0.07,-0.015,-0.065,-0.05,-0.06,-0.08,-0.08
0.152,-0.03,-0.085,-0.055,0.058,0.013,-0.07,-0.015,-0.065,-0.05,-0.06,-0.08,-0.08
0.154,-0.03,-0.085,-0.055,0.058,0.013,-0.07,-0.015,-0.065,-0.05,-0.06,-0.08,-0.08
0.156,-0.03,-0.085,-0.055,0.058,0.013,-0.07,-0.015,-0.065,-0.05,-0.06,-0.08,-0.08
0.158,-0.03,-0.085,-0.055,0.058,0.013,-0.07,-0.015,-0.065,-0.05,-0.06,-0.08,-0.08
0.16,-0.03,-0.085,-0.055,0.058,0.013,-0.07,-0.015,-0.065,-0.05,-0.06,-0.08,-0.08
0.162,-0.026,-0.081,-0.055,0.054,0.015,-0.067,-0.015,-0.065,-0.05,-0.06,-0.08,-0.08
0.164,-0.024,-0.08,-0.056,0.052,0.016,-0.067,-0.016,-0.065,-0.05,-0.06,-0.08,-0.08
0.166,-0.027,-0.08,-0.053,0.054,0.013,-0.066,-0.013,-0.065,-0.05,-0.06,-0.08,-0.08
0.168,-0.021,-0.08,-0.059,0.051,0.019,-0.069,-0.01,-0.065,-0.05,-0.06,-0.08,-0.08
0.17,0.0,-0.08,-0.08,0.04,0.04,-0.08,-0.01,-0.065,-0.05,-0.06,-0.08,-0.08
0.172,0.001,-0.076,-0.077,0.038,0.039,-0.076,-0.006,-0.065,-0.05,-0.06,-0.08,-0.08
0.174,0.0,-0.075,-0.075,0.038,0.038,-0.075,-0.004,-0.065,-0.05,-0.06,-0.08,-0.08
0.176,-0.002,-0.075,-0.073,0.039,0.036,-0.074,-0.006,-0.065,-0.05,-0.06,-0.08,-0.08
0.178,-0.005,-0.075,-0.07,0.04,0.033,-0.072,-0.004,-0.065,-0.05,-0.06,-0.08,-0.08
0.18,-0.005,-0.075,-0.07,0.04,0.033,-0.072,0.0,-0.065,-0.05,-0.06,-0.08,-0.08
0.182,-0.009,-0.075,-0.066,0.042,0.029,-0.07,0.0,-0.065,-0.054,-0.06,-0.08,-0.08
0.184,-0.013,-0.078,-0.065,0.046,0.026,-0.071,-0.001,-0.065,-0.055,-0.06,-0.08,-0.08
0.186,-0.017,-0.081,-0.063,0.049,0.023,-0.071,0.002,-0.065,-0.055,-0.06,-0.08,-0.08
0.188,-0.02,-0.08,-0.06,0.05,0.02,-0.07,0.005,-0.064,-0.055,-0.06,-0.08,-0.08
0.19,-0.02,-0.08,-0.06,0.05,0.02,-0.07,0.005,-0.06,-0.055,-0.06,-0.08,-0.08
0.192,-0.024,-0.08,-0.056,0.052,0.016,-0.068,0.005,-0.061,-0.055,-0.064,-0.08,-0.08
0.194,-0.028,-0.081,-0.053,0.055,0.013,-0.066,0.008,-0.056,-0.057,-0.065,-0.077,-0.08
0.196,-0.017,-0.077,-0.06,0.047,0.022,-0.068,0.011,-0.059,-0.049,-0.067,-0.074,-0.079
0.198,-0.014,-0.086,-0.072,0.05,0.03,-0.079,0.009,-0.046,-0.039,-0.07,-0.076,-0.082
0.2,-0.035,-0.115,-0.08,0.075,0.023,-0.097,0.01,0.01,-0.03,-0.07,-0.085,-0.095
0.202,-0.02,-0.114,-0.094,0.067,0.037,-0.104,0.038,0.061,0.017,-0.073,-0.105,-0.11
0.204,-0.006,-0.131,-0.125,0.069,0.06,-0.128,0.061,0.13,0.063,-0.079,-0.12,-0.135
0.206,-0.006,-0.17,-0.164,0.089,0.079,-0.167,0.097,0.225,0.129,-0.063,-0.132,-0.164
0.208,-0.011,-0.191,-0.18,0.101,0.085,-0.186,0.146,0.332,0.232,-0.033,-0.158,-0.192
0.21,-0.02,-0.185,-0.165,0.103,0.073,-0.175,0.19,0.445,0.345,-0.005,-0.185,-0.215
0.212,-0.037,-0.189,-0.153,0.113,0.059,-0.171,0.248,0.582,0.472,0.043,-0.174,-0.215
0.214,-0.007,-0.147,-0.14,0.077,0.067,-0.144,0.312,0.77,0.641,0.123,-0.164,-0.218
0.216,0.045,-0.087,-0.132,0.022,0.089,-0.11,0.313,0.91,0.774,0.2,-0.132,-0.202
0.218,0.093,-0.027,-0.12,-0.032,0.107,-0.074,0.274,0.921,0.794,0.269,-0.043,-0.14
0.22,0.16,0.065,-0.095,-0.112,0.127,-0.015,0.235,0.79,0.715,0.365,0.105,-0.03
0.222,0.256,0.181,-0.076,-0.218,0.166,0.052,0.084,0.504,0.584,0.5,0.314,0.124
0.224,0.342,0.295,-0.047,-0.318,0.195,0.124,-0.077,0.202,0.424,0.638,0.537,0.285
0.226,0.42,0.406,-0.014,-0.413,0.217,0.196,-0.224,-0.047,0.322,0.774,0.765,0.445
0.228,0.508,0.526,0.019,-0.517,0.244,0.272,-0.351,-0.218,0.269,0.925,0.989,0.605
0.23,0.59,0.645,0.055,-0.618,0.267,0.35,-0.425,-0.285,0.215,1.09,1.195,0.76
0.232,0.646,0.734,0.089,-0.69,0.278,0.412,-0.476,-0.283,0.238,1.259,1.415,0.916
0.234,0.707,0.859,0.152,-0.783,0.277,0.506,-0.545,-0.363,0.235,1.45,1.66,1.104
0.236,0.703,1.01,0.307,-0.857,0.198,0.658,-0.639,-0.593,0.09,1.58,1.839,1.285
0.238,0.606,1.129,0.523,-0.867,0.041,0.825,-0.704,-0.893,-0.193,1.594,1.911,1.418
0.24,0.465,1.165,0.7,-0.815,-0.118,0.932,-0.705,-1.145,-0.51,1.535,1.93,1.505
0.242,0.318,1.103,0.785,-0.711,-0.234,0.944,-0.711,-1.329,-0.767,1.483,1.938,1.561
0.244,0.31,1.041,0.731,-0.676,-0.211,0.886,-0.731,-1.45,-0.917,1.462,1.981,1.586
0.246,0.345,0.95,0.605,-0.647,-0.131,0.777,-0.743,-1.535,-1.009,1.406,1.998,1.589
0.248,0.346,0.808,0.462,-0.577,-0.058,0.634,-0.756,-1.589,-1.099,1.25,1.903,1.538
0.25,0.34,0.645,0.305,-0.493,0.017,0.475,-0.775,-1.615,-1.22,0.93,1.645,1.385
0.252,0.268,0.435,0.167,-0.352,0.05,0.3,-0.748,-1.646,-1.395,0.348,1.186,1.142
0.254,0.18,0.19,0.009,-0.185,0.085,0.099,-0.722,-1.607,-1.554,-0.376,0.634,0.842
0.256,0.134,0.013,-0.121,-0.073,0.127,-0.054,-0.692,-1.553,-1.612,-0.847,0.238,0.598
0.258,0.095,-0.073,-0.168,-0.011,0.132,-0.121,-0.659,-1.483,-1.542,-0.934,0.062,0.447
0.26,0.03,-0.125,-0.155,0.048,0.093,-0.14,-0.625,-1.325,-1.385,-0.86,-0.035,0.33
0.262,0.016,-0.135,-0.151,0.06,0.084,-0.142,-0.54,-1.137,-1.206,-0.766,-0.11,0.226
0.264,0.006,-0.138,-0.144,0.066,0.075,-0.141,-0.448,-0.952,-1.018,-0.656,-0.157,0.123
0.266,-0.001,-0.139,-0.138,0.07,0.069,-0.138,-0.376,-0.768,-0.838,-0.551,-0.195,0.049
0.268,-0.001,-0.135,-0.133,0.069,0.066,-0.134,-0.315,-0.612,-0.694,-0.472,-0.215,-0.004
0.27,-0.01,-0.135,-0.125,0.073,0.058,-0.13,-0.255,-0.505,-0.585,-0.405,-0.195,-0.055
0.272,-0.009,-0.131,-0.122,0.07,0.056,-0.126,-0.195,-0.392,-0.476,-0.331,-0.182,-0.065
0.274,-0.019,-0.13,-0.111,0.075,0.046,-0.12,-0.136,-0.294,-0.379,-0.275,-0.171,-0.067
0.276,-0.028,-0.128,-0.1,0.079,0.036,-0.114,-0.087,-0.222,-0.31,-0.222,-0.16,-0.072
0.278,-0.032,-0.125,-0.093,0.079,0.031,-0.109,-0.044,-0.159,-0.256,-0.176,-0.153,-0.076
0.28,-0.04,-0.125,-0.085,0.083,0.023,-0.105,-0.005,-0.1,-0.2,-0.15,-0.145,-0.08
0.282,-0.044,-0.121,-0.077,0.083,0.017,-0.099,0.004,-0.067,-0.167,-0.12,-0.137,-0.084
0.284,-0.05,-0.119,-0.069,0.085,0.009,-0.094,0.01,-0.037,-0.134,-0.11,-0.129,-0.085
0.286,-0.06,-0.121,-0.061,0.091,0.0,-0.09,0.019,-0.02,-0.113,-0.109,-0.12,-0.086
0.288,-0.066,-0.119,-0.053,0.093,-0.006,-0.086,0.027,-0.02,-0.109,-0.104,-0.115,-0.091
0.29,-0.065,-0.115,-0.05,0.09,-0.007,-0.082,0.035,-0.015,-0.105,-0.1,-0.12,-0.095
0.292,-0.065,-0.115,-0.05,0.09,-0.007,-0.082,0.043,-0.011,-0.101,-0.1,-0.119,-0.099
0.294,-0.065,-0.115,-0.05,0.09,-0.007,-0.082,0.05,-0.007,-0.097,-0.098,-0.13,-0.1
0.296,-0.065,-0.115,-0.05,0.09,-0.007,-0.082,0.046,-0.003,-0.093,-0.092,-0.135,-0.102
0.298,-0.064,-0.114,-0.05,0.089,-0.007,-0.082,0.049,0.0,-0.089,-0.09,-0.129,-0.105
0.3,-0.06,-0.11,-0.05,0.085,-0.005,-0.08,0.07,0.0,-0.085,-0.09,-0.13,-0.105
0.302,-0.059,-0.11,-0.05,0.085,-0.005,-0.08,0.071,0.004,-0.077,-0.086,-0.13,-0.105
0.304,-0.063,-0.11,-0.047,0.087,-0.008,-0.078,0.069,0.008,-0.072,-0.081,-0.13,-0.105
0.306,-0.066,-0.11,-0.044,0.089,-0.011,-0.077,0.07,0.012,-0.068,-0.08,-0.13,-0.105
0.308,-0.064,-0.109,-0.045,0.087,-0.009,-0.077,0.07,0.015,-0.064,-0.079,-0.129,-0.105
0.31,-0.06,-0.105,-0.045,0.083,-0.007,-0.075,0.07,0.015,-0.06,-0.075,-0.125,-0.105
0.312,-0.06,-0.105,-0.045,0.083,-0.007,-0.075,0.07,0.019,-0.056,-0.075,-0.125,-0.105
0.314,-0.06,-0.106,-0.046,0.083,-0.007,-0.076,0.07,0.024,-0.052,-0.075,-0.125,-0.108
0.316,-0.06,-0.103,-0.043,0.082,-0.008,-0.073,0.07,0.025,-0.048,-0.075,-0.125,-0.111
0.318,-0.06,-0.1,-0.04,0.08,-0.01,-0.07,0.07,0.026,-0.045,-0.075,-0.125,-0.11
0.32,-0.06,-0.1,-0.04,0.08,-0.01,-0.07,0.07,0.03,-0.045,-0.075,-0.125,-0.11
0.322,-0.06,-0.1,-0.04,0.08,-0.01,-0.07,0.07,0.035,-0.041,-0.071,-0.125,-0.11
0.324,-0.061,-0.101,-0.04,0.08,-0.01,-0.07,0.07,0.035,-0.04,-0.07,-0.122,-0.11
0.326,-0.058,-0.098,-0.04,0.078,-0.009,-0.069,0.07,0.037,-0.038,-0.07,-0.119,-0.11
0.328,-0.054,-0.095,-0.04,0.074,-0.007,-0.067,0.07,0.04,-0.035,-0.07,-0.12,-0.11
0.33,-0.055,-0.095,-0.04,0.075,-0.007,-0.067,0.07,0.04,-0.035,-0.07,-0.12,-0.11
0.332,-0.059,-0.095,-0.036,0.077,-0.011,-0.065,0.07,0.044,-0.031,-0.07,-0.12,-0.114
0.334,-0.061,-0.096,-0.035,0.079,-0.013,-0.065,0.07,0.045,-0.03,-0.071,-0.121,-0.115
0.336,-0.058,-0.093,-0.035,0.076,-0.011,-0.064,0.07,0.047,-0.028,-0.068,-0.118,-0.115
0.338,-0.055,-0.09,-0.035,0.073,-0.01,-0.062,0.07,0.051,-0.025,-0.065,-0.115,-0.115
0.34,-0.055,-0.09,-0.035,0.073,-0.01,-0.062,0.07,0.05,-0.025,-0.065,-0.115,-0.115
0.342,-0.055,-0.09,-0.035,0.073,-0.01,-0.062,0.07,0.048,-0.021,-0.065,-0.115,-0.115
0.344,-0.058,-0.09,-0.032,0.074,-0.013,-0.061,0.07,0.065,-0.02,-0.065,-0.115,-0.115
0.346,-0.061,-0.09,-0.029,0.075,-0.016,-0.06,0.07,0.08,-0.018,-0.065,-0.115,-0.115
0.348,-0.06,-0.09,-0.03,0.075,-0.015,-0.06,0.07,0.08,-0.015,-0.064,-0.115,-0.115
0.35,-0.06,-0.09,-0.03,0.075,-0.015,-0.06,0.07,0.08,-0.015,-0.06,-0.115,-0.115
0.352,-0.06,-0.09,-0.03,0.075,-0.015,-0.06,0.07,0.08,-0.011,-0.06,-0.111,-0.111
0.354,-0.057,-0.087,-0.03,0.072,-0.013,-0.058,0.069,0.08,-0.006,-0.06,-0.11,-0.11
0.356,-0.054,-0.084,-0.03,0.069,-0.011,-0.057,0.072,0.08,-0.005,-0.06,-0.11,-0.11
0.358,-0.056,-0.085,-0.029,0.071,-0.013,-0.057,0.075,0.08,-0.004,-0.06,-0.11,-0.11
0.36,-0.06,-0.085,-0.025,0.073,-0.017,-0.055,0.075,0.08,0.0,-0.06,-0.11,-0.11
0.362,-0.06,-0.085,-0.025,0.073,-0.017,-0.055,0.075,0.08,0.005,-0.06,-0.11,-0.11
0.364,-0.06,-0.085,-0.025,0.073,-0.017,-0.055,0.075,0.08,0.005,-0.057,-0.11,-0.11
0.366,-0.06,-0.085,-0.025,0.073,-0.017,-0.055,0.075,0.08,0.007,-0.054,-0.11,-0.11
0.368,-0.06,-0.085,-0.025,0.073,-0.017,-0.055,0.075,0.081,0.011,-0.055,-0.11,-0.109
0.37,-0.06,-0.085,-0.025,0.073,-0.017,-0.055,0.075,0.085,0.01,-0.055,-0.11,-0.105
0.372,-0.056,-0.081,-0.025,0.069,-0.015,-0.052,0.083,0.085,0.01,-0.055,-0.11,-0.105
0.374,-0.055,-0.08,-0.025,0.068,-0.015,-0.052,0.088,0.085,0.013,-0.055,-0.11,-0.105
0.376,-0.055,-0.08,-0.025,0.068,-0.015,-0.052,0.092,0.085,0.016,-0.055,-0.11,-0.105
0.378,-0.055,-0.08,-0.025,0.068,-0.015,-0.052,0.095,0.085,0.015,-0.055,-0.11,-0.105
0.38,-0.055,-0.08,-0.025,0.068,-0.015,-0.052,0.095,0.085,0.015,-0.055,-0.11,-0.105
0.382,-0.055,-0.08,-0.025,0.068,-0.015,-0.052,0.095,0.085,0.019,-0.051,-0.11,-0.105
0.384,-0.055,-0.08,-0.025,0.068,-0.015,-0.052,0.095,0.085,0.021,-0.05,-0.11,-0.106
0.386,-0.055,-0.08,-0.025,0.068,-0.015,-0.052,0.095,0.085,0.019,-0.05,-0.11,-0.103
0.388,-0.055,-0.08,-0.025,0.068,-0.015,-0.052,0.095,0.085,0.021,-0.05,-0.11,-0.1
0.39,-0.055,-0.08,-0.025,0.068,-0.015,-0.052,0.095,0.085,0.025,-0.05,-0.11,-0.1
0.392,-0.06,-0.085,-0.025,0.073,-0.017,-0.055,0.095,0.089,0.025,-0.05,-0.11,-0.1
0.394,-0.057,-0.082,-0.025,0.07,-0.016,-0.053,0.095,0.09,0.024,-0.05,-0.11,-0.1
0.396,-0.054,-0.079,-0.025,0.067,-0.015,-0.052,0.095,0.092,0.027,-0.05,-0.11,-0.1
0.398,-0.055,-0.08,-0.025,0.068,-0.015,-0.052,0.095,0.095,0.03,-0.049,-0.11,-0.1
0.4,-0.055,-0.08,-0.025,0.068,-0.015,-0.052,0.095,0.095,0.03,-0.045,-0.11,-0.1
0.402,-0.055,-0.08,-0.025,0.068,-0.015,-0.052,0.095,0.099,0.03,-0.045,-0.11,-0.1
0.404,-0.055,-0.08,-0.025,0.068,-0.015,-0.052,0.095,0.1,0.033,-0.045,-0.111,-0.101
0.406,-0.055,-0.08,-0.025,0.068,-0.015,-0.052,0.095,0.102,0.036,-0.045,-0.108,-0.098
0.408,-0.055,-0.08,-0.025,0.068,-0.015,-0.052,0.095,0.105,0.035,-0.045,-0.105,-0.095
0.41,-0.055,-0.08,-0.025,0.068,-0.015,-0.052,0.095,0.105,0.035,-0.045,-0.105,-0.095
0.412,-0.055,-0.08,-0.025,0.068,-0.015,-0.052,0.095,0.109,0.039,-0.045,-0.105,-0.095
0.414,-0.058,-0.08,-0.022,0.069,-0.018,-0.051,0.095,0.113,0.043,-0.045,-0.105,-0.095
0.416,-0.061,-0.08,-0.019,0.07,-0.021,-0.05,0.095,0.117,0.047,-0.045,-0.105,-0.095
0.418,-0.06,-0.08,-0.02,0.07,-0.02,-0.05,0.095,0.12,0.05,-0.044,-0.104,-0.095
0.42,-0.06,-0.08,-0.02,0.07,-0.02,-0.05,0.095,0.12,0.05,-0.04,-0.1,-0.095
0.422,-0.06,-0.076,-0.016,0.068,-0.022,-0.046,0.095,0.124,0.054,-0.04,-0.1,-0.099
0.424,-0.06,-0.075,-0.015,0.068,-0.022,-0.045,0.095,0.125,0.055,-0.041,-0.1,-0.1
0.426,-0.06,-0.075,-0.015,0.068,-0.022,-0.045,0.095,0.127,0.057,-0.038,-0.1,-0.102
0.428,-0.06,-0.075,-0.015,0.068,-0.022,-0.045,0.095,0.13,0.06,-0.035,-0.1,-0.105
0.43,-0.06,-0.075,-0.015,0.068,-0.022,-0.045,0.095,0.13,0.06,-0.035,-0.1,-0.1
0.432,-0.064,-0.075,-0.011,0.07,-0.026,-0.042,0.099,0.134,0.064,-0.035,-0.1,-0.1
0.434,-0.065,-0.075,-0.01,0.07,-0.027,-0.042,0.1,0.134,0.065,-0.032,-0.097,-0.1
0.436,-0.065,-0.075,-0.01,0.07,-0.027,-0.042,0.1,0.138,0.066,-0.029,-0.094,-0.1
0.438,-0.065,-0.075,-0.01,0.07,-0.027,-0.042,0.1,0.147,0.071,-0.03,-0.095,-0.1
0.44,-0.065,-0.075,-0.01,0.07,-0.027,-0.042,0.1,0.15,0.075,-0.03,-0.095,-0.1
0.442,-0.069,-0.075,-0.006,0.073,-0.031,-0.04,0.1,0.154,0.079,-0.026,-0.095,-0.1
0.444,-0.07,-0.075,-0.004,0.073,-0.033,-0.04,0.103,0.155,0.08,-0.024,-0.096,-0.1
0.446,-0.07,-0.075,-0.006,0.073,-0.032,-0.041,0.106,0.155,0.081,-0.026,-0.093,-0.1
0.448,-0.07,-0.074,-0.004,0.072,-0.032,-0.039,0.105,0.154,0.086,-0.024,-0.09,-0.1
0.45,-0.07,-0.07,0.0,0.07,-0.035,-0.035,0.105,0.155,0.09,-0.02,-0.09,-0.1
0.452,-0.07,-0.07,0.0,0.07,-0.035,-0.035,0.105,0.172,0.094,-0.02,-0.09,-0.1
0.454,-0.067,-0.067,0.0,0.067,-0.033,-0.033,0.106,0.174,0.096,-0.021,-0.09,-0.101
0.456,-0.064,-0.064,0.0,0.064,-0.031,-0.032,0.103,0.169,0.093,-0.018,-0.09,-0.098
0.458,-0.066,-0.065,0.001,0.066,-0.033,-0.032,0.1,0.17,0.098,-0.015,-0.09,-0.095
0.46,-0.07,-0.065,0.005,0.067,-0.037,-0.03,0.1,0.17,0.115,-0.015,-0.09,-0.095
0.462,-0.066,-0.061,0.005,0.063,-0.035,-0.027,0.1,0.169,0.12,-0.015,-0.086,-0.095
0.464,-0.065,-0.06,0.005,0.062,-0.035,-0.027,0.097,0.176,0.12,-0.012,-0.085,-0.095
0.466,-0.063,-0.058,0.005,0.06,-0.034,-0.027,0.095,0.183,0.12,-0.009,-0.083,-0.095
0.468,-0.06,-0.054,0.006,0.057,-0.032,-0.024,0.095,0.185,0.121,-0.01,-0.079,-0.095
0.47,-0.065,-0.055,0.01,0.06,-0.037,-0.022,0.095,0.185,0.125,-0.01,-0.08,-0.095
0.472,-0.07,-0.055,0.014,0.062,-0.042,-0.02,0.095,0.193,0.125,-0.01,-0.08,-0.095
0.474,-0.067,-0.052,0.015,0.059,-0.041,-0.019,0.092,0.199,0.124,-0.007,-0.077,-0.095
0.476,-0.064,-0.047,0.016,0.055,-0.04,-0.015,0.089,0.202,0.127,-0.002,-0.074,-0.095
0.478,-0.066,-0.045,0.021,0.055,-0.043,-0.011,0.09,0.206,0.131,0.0,-0.075,-0.095
0.48,-0.07,-0.045,0.025,0.057,-0.047,-0.01,0.09,0.21,0.135,0.0,-0.075,-0.095
0.482,-0.066,-0.041,0.025,0.053,-0.045,-0.008,0.09,0.209,0.139,0.004,-0.071,-0.095
0.484,-0.064,-0.036,0.028,0.05,-0.046,-0.004,0.087,0.216,0.14,0.009,-0.069,-0.092
0.486,-0.066,-0.035,0.031,0.051,-0.048,-0.002,0.084,0.223,0.142,0.01,-0.071,-0.088
0.488,-0.063,-0.034,0.03,0.049,-0.046,-0.002,0.085,0.226,0.145,0.011,-0.069,-0.084
0.49,-0.055,-0.025,0.03,0.04,-0.042,0.002,0.085,0.23,0.145,0.02,-0.065,-0.08
0.492,-0.051,-0.021,0.03,0.036,-0.04,0.005,0.081,0.23,0.153,0.024,-0.065,-0.076
0.494,-0.047,-0.017,0.03,0.032,-0.038,0.006,0.08,0.233,0.158,0.027,-0.066,-0.072
0.496,-0.043,-0.013,0.03,0.028,-0.036,0.008,0.08,0.236,0.164,0.034,-0.063,-0.068
0.498,-0.039,-0.009,0.03,0.024,-0.034,0.01,0.08,0.242,0.171,0.041,-0.059,-0.064
0.5,-0.035,-0.005,0.03,0.02,-0.032,0.012,0.08,0.255,0.175,0.045,-0.055,-0.06
0.502,-0.031,-0.001,0.03,0.016,-0.031,0.014,0.076,0.264,0.187,0.049,-0.051,-0.056
0.504,-0.024,0.006,0.03,0.009,-0.027,0.018,0.075,0.268,0.197,0.053,-0.047,-0.052
0.506,-0.017,0.013,0.03,0.002,-0.023,0.021,0.075,0.272,0.202,0.057,-0.043,-0.048
0.508,-0.015,0.016,0.031,-0.001,-0.023,0.023,0.075,0.276,0.207,0.061,-0.039,-0.044
0.51,-0.015,0.02,0.035,-0.003,-0.025,0.027,0.075,0.28,0.215,0.065,-0.035,-0.04
0.512,-0.011,0.024,0.035,-0.007,-0.023,0.029,0.071,0.284,0.219,0.064,-0.027,-0.04
0.514,-0.01,0.028,0.038,-0.009,-0.024,0.033,0.07,0.287,0.223,0.071,-0.019,-0.035
0.516,-0.008,0.032,0.04,-0.012,-0.024,0.036,0.068,0.294,0.227,0.077,-0.011,-0.025
0.518,-0.006,0.036,0.041,-0.015,-0.024,0.038,0.064,0.301,0.232,0.082,-0.003,-0.019
0.52,-0.01,0.04,0.05,-0.015,-0.03,0.045,0.065,0.305,0.24,0.095,0.005,-0.015
0.522,-0.001,0.052,0.054,-0.026,-0.028,0.053,0.066,0.313,0.244,0.1,0.013,-0.007
0.524,-0.004,0.059,0.064,-0.028,-0.034,0.061,0.062,0.318,0.251,0.1,0.018,0.002
0.526,-0.014,0.06,0.075,-0.023,-0.045,0.067,0.06,0.322,0.257,0.1,0.022,0.007
0.528,-0.013,0.068,0.081,-0.028,-0.048,0.074,0.059,0.325,0.261,0.1,0.026,0.012
0.53,0.0,0.085,0.085,-0.043,-0.043,0.085,0.055,0.325,0.265,0.1,0.03,0.02
0.532,0.005,0.09,0.085,-0.048,-0.04,0.087,0.055,0.329,0.265,0.108,0.038,0.024
0.534,0.004,0.089,0.085,-0.047,-0.04,0.086,0.056,0.331,0.265,0.113,0.047,0.031
0.536,0.007,0.093,0.085,-0.051,-0.039,0.089,0.054,0.328,0.265,0.118,0.052,0.037
0.538,0.009,0.094,0.085,-0.052,-0.038,0.09,0.049,0.325,0.266,0.127,0.057,0.042
0.54,0.01,0.095,0.085,-0.053,-0.038,0.09,0.045,0.325,0.27,0.135,0.07,0.05
0.542,0.031,0.119,0.088,-0.075,-0.029,0.103,0.045,0.321,0.269,0.139,0.078,0.054
0.544,0.034,0.133,0.099,-0.084,-0.033,0.116,0.042,0.32,0.277,0.144,0.089,0.057
0.546,0.029,0.139,0.11,-0.085,-0.041,0.124,0.04,0.318,0.279,0.145,0.1,0.065
0.548,0.038,0.154,0.116,-0.097,-0.039,0.135,0.04,0.314,0.275,0.146,0.106,0.078
0.55,0.05,0.17,0.12,-0.11,-0.035,0.145,0.035,0.315,0.275,0.15,0.11,0.085
0.552,0.055,0.175,0.12,-0.115,-0.033,0.147,0.03,0.316,0.271,0.149,0.114,0.089
0.554,0.055,0.175,0.12,-0.115,-0.033,0.147,0.03,0.312,0.27,0.156,0.121,0.093
0.556,0.055,0.175,0.12,-0.115,-0.033,0.147,0.028,0.31,0.268,0.162,0.127,0.097
0.558,0.056,0.176,0.12,-0.116,-0.033,0.147,0.025,0.309,0.264,0.168,0.132,0.101
0.56,0.06,0.18,0.12,-0.12,-0.03,0.15,0.025,0.305,0.265,0.18,0.14,0.11
0.562,0.061,0.18,0.12,-0.121,-0.029,0.15,0.017,0.305,0.266,0.176,0.148,0.122
0.564,0.056,0.179,0.123,-0.118,-0.033,0.15,0.011,0.302,0.262,0.174,0.153,0.129
0.566,0.056,0.183,0.127,-0.12,-0.035,0.155,0.009,0.299,0.26,0.175,0.156,0.129
0.568,0.061,0.192,0.131,-0.126,-0.035,0.161,0.003,0.301,0.259,0.175,0.162,0.131
0.57,0.06,0.195,0.135,-0.128,-0.038,0.165,-0.005,0.3,0.255,0.175,0.17,0.14
0.572,0.062,0.197,0.136,-0.13,-0.037,0.166,-0.009,0.292,0.255,0.175,0.174,0.144
0.574,0.082,0.213,0.132,-0.148,-0.025,0.172,-0.013,0.287,0.252,0.175,0.178,0.148
0.576,0.09,0.22,0.13,-0.155,-0.02,0.175,-0.017,0.281,0.249,0.177,0.182,0.152
0.578,0.085,0.214,0.129,-0.15,-0.023,0.171,-0.02,0.274,0.25,0.189,0.186,0.156
0.58,0.09,0.215,0.125,-0.153,-0.018,0.17,-0.02,0.27,0.25,0.205,0.19,0.16
0.582,0.09,0.215,0.125,-0.153,-0.018,0.17,-0.024,0.262,0.242,0.202,0.188,0.159
0.584,0.089,0.215,0.126,-0.153,-0.019,0.17,-0.025,0.257,0.234,0.199,0.203,0.17
0.586,0.092,0.215,0.123,-0.154,-0.016,0.169,-0.027,0.25,0.226,0.2,0.211,0.175
0.588,0.096,0.215,0.12,-0.155,-0.013,0.167,-0.03,0.237,0.218,0.2,0.203,0.169
0.59,0.095,0.215,0.12,-0.155,-0.013,0.167,-0.03,0.23,0.21,0.2,0.2,0.165
0.592,0.091,0.207,0.116,-0.149,-0.013,0.161,-0.03,0.222,0.201,0.2,0.2,0.161
0.594,0.087,0.201,0.114,-0.145,-0.014,0.157,-0.03,0.211,0.198,0.197,0.197,0.156
0.596,0.083,0.199,0.116,-0.141,-0.017,0.157,-0.03,0.2,0.19,0.194,0.195,0.155
0.598,0.08,0.193,0.113,-0.137,-0.017,0.153,-0.03,0.193,0.177,0.195,0.195,0.154
0.6,0.08,0.185,0.105,-0.133,-0.013,0.145,-0.03,0.185,0.17,0.195,0.19,0.15
0.602,0.079,0.181,0.101,-0.13,-0.011,0.141,-0.03,0.173,0.162,0.195,0.185,0.146
0.604,0.084,0.178,0.094,-0.131,-0.005,0.136,-0.03,0.16,0.151,0.196,0.185,0.142
0.606,0.082,0.17,0.088,-0.126,-0.003,0.128,-0.03,0.151,0.14,0.192,0.183,0.137
0.608,0.074,0.157,0.083,-0.116,-0.004,0.12,-0.03,0.142,0.133,0.183,0.18,0.135
0.61,0.075,0.15,0.075,-0.113,0.0,0.112,-0.03,0.13,0.125,0.175,0.18,0.135
0.612,0.071,0.143,0.071,-0.107,0.0,0.107,-0.03,0.118,0.113,0.167,0.172,0.127
0.614,0.066,0.131,0.064,-0.099,0.001,0.097,-0.03,0.109,0.104,0.159,0.164,0.121
0.616,0.065,0.12,0.056,-0.093,0.004,0.088,-0.03,0.101,0.096,0.151,0.156,0.119
0.618,0.065,0.113,0.048,-0.089,0.008,0.08,-0.03,0.093,0.088,0.144,0.148,0.113
0.62,0.065,0.105,0.04,-0.085,0.012,0.072,-0.03,0.085,0.08,0.14,0.14,0.105
0.622,0.065,0.097,0.032,-0.081,0.016,0.064,-0.03,0.077,0.072,0.132,0.131,0.101
0.624,0.065,0.089,0.024,-0.077,0.02,0.056,-0.03,0.069,0.065,0.124,0.128,0.098
0.626,0.063,0.081,0.018,-0.072,0.022,0.049,-0.03,0.061,0.054,0.116,0.12,0.09
0.628,0.059,0.073,0.014,-0.066,0.022,0.043,-0.03,0.053,0.043,0.108,0.108,0.077
0.63,0.055,0.065,0.01,-0.06,0.022,0.037,-0.03,0.045,0.035,0.1,0.1,0.07
0.632,0.051,0.057,0.006,-0.054,0.022,0.031,-0.03,0.041,0.027,0.091,0.088,0.062
0.634,0.048,0.049,0.001,-0.048,0.023,0.025,-0.031,0.037,0.016,0.088,0.079,0.051
0.636,0.041,0.041,0.0,-0.041,0.02,0.02,-0.027,0.033,0.005,0.08,0.069,0.04
0.638,0.034,0.033,-0.001,-0.033,0.017,0.016,-0.018,0.029,-0.002,0.067,0.058,0.033
0.64,0.03,0.025,-0.005,-0.027,0.017,0.01,-0.015,0.025,-0.01,0.06,0.05,0.025
0.642,0.026,0.017,-0.009,-0.022,0.017,0.003,-0.011,0.025,-0.018,0.053,0.038,0.017
0.644,0.019,0.009,-0.01,-0.014,0.014,0.0,-0.004,0.022,-0.023,0.041,0.029,0.012
0.646,0.012,0.001,-0.011,-0.006,0.012,-0.005,0.003,0.018,-0.027,0.03,0.019,0.009
0.648,0.01,-0.006,-0.016,-0.001,0.014,-0.011,0.006,0.014,-0.031,0.023,0.008,0.003
0.65,0.01,-0.01,-0.02,0.0,0.015,-0.015,0.01,0.01,-0.035,0.015,0.0,-0.005
0.652,0.006,-0.014,-0.02,0.004,0.014,-0.017,0.014,0.006,-0.039,0.007,-0.008,-0.009
0.654,0.001,-0.019,-0.02,0.009,0.011,-0.019,0.015,0.005,-0.042,0.002,-0.013,-0.013
0.656,0.0,-0.02,-0.02,0.01,0.01,-0.02,0.017,0.003,-0.049,-0.002,-0.017,-0.017
0.658,-0.001,-0.021,-0.02,0.011,0.01,-0.02,0.021,-0.001,-0.056,-0.006,-0.021,-0.02
0.66,-0.005,-0.025,-0.02,0.015,0.008,-0.022,0.02,0.0,-0.06,-0.01,-0.025,-0.02
0.662,-0.005,-0.025,-0.02,0.015,0.008,-0.022,0.02,0.0,-0.064,-0.014,-0.029,-0.024
0.664,-0.007,-0.027,-0.02,0.017,0.006,-0.024,0.023,-0.003,-0.065,-0.018,-0.033,-0.026
0.666,-0.013,-0.033,-0.02,0.023,0.004,-0.026,0.026,-0.005,-0.067,-0.022,-0.037,-0.024
0.668,-0.015,-0.035,-0.02,0.025,0.003,-0.027,0.025,-0.005,-0.07,-0.026,-0.04,-0.026
0.67,-0.015,-0.035,-0.02,0.025,0.003,-0.027,0.025,-0.005,-0.07,-0.03,-0.04,-0.03
0.672,-0.019,-0.039,-0.02,0.029,0.001,-0.029,0.029,-0.005,-0.074,-0.034,-0.044,-0.03
0.674,-0.021,-0.041,-0.02,0.031,-0.001,-0.031,0.031,-0.008,-0.075,-0.035,-0.045,-0.029
0.676,-0.018,-0.038,-0.02,0.028,0.002,-0.029,0.029,-0.011,-0.075,-0.037,-0.047,-0.032
0.678,-0.015,-0.035,-0.019,0.025,0.003,-0.026,0.031,-0.01,-0.075,-0.04,-0.05,-0.035
0.68,-0.02,-0.035,-0.015,0.028,-0.002,-0.025,0.035,-0.01,-0.075,-0.04,-0.05,-0.035
0.682,-0.022,-0.036,-0.014,0.029,-0.004,-0.025,0.035,-0.01,-0.075,-0.044,-0.05,-0.035
0.684,-0.009,-0.032,-0.023,0.02,0.007,-0.027,0.034,-0.013,-0.075,-0.046,-0.05,-0.038
0.686,-0.009,-0.047,-0.038,0.028,0.015,-0.042,0.037,-0.016,-0.075,-0.044,-0.05,-0.041
0.688,-0.022,-0.067,-0.045,0.045,0.012,-0.056,0.04,-0.015,-0.075,-0.046,-0.05,-0.04
0.69,-0.02,-0.06,-0.04,0.04,0.01,-0.05,0.04,-0.015,-0.075,-0.05,-0.05,-0.04
0.692,-0.02,-0.059,-0.04,0.04,0.01,-0.05,0.04,-0.019,-0.075,-0.05,-0.05,-0.044
0.694,-0.02,-0.06,-0.04,0.04,0.01,-0.05,0.04,-0.02,-0.075,-0.049,-0.049,-0.045
0.696,-0.02,-0.06,-0.04,0.04,0.01,-0.05,0.04,-0.02,-0.075,-0.052,-0.052,-0.045
0.698,-0.02,-0.06,-0.04,0.04,0.01,-0.05,0.04,-0.02,-0.075,-0.056,-0.055,-0.045
0.7,-0.02,-0.06,-0.04,0.04,0.01,-0.05,0.04,-0.02,-0.075,-0.06,-0.055,-0.045
0.702,-0.02,-0.06,-0.04,0.04,0.01,-0.05,0.04,-0.024,-0.075,-0.064,-0.059,-0.045
0.704,-0.019,-0.06,-0.041,0.04,0.011,-0.05,0.04,-0.025,-0.075,-0.065,-0.061,-0.045
0.706,-0.022,-0.06,-0.038,0.041,0.008,-0.049,0.04,-0.025,-0.075,-0.065,-0.059,-0.045
0.708,-0.025,-0.06,-0.035,0.043,0.005,-0.047,0.04,-0.025,-0.075,-0.065,-0.061,-0.046
0.71,-0.025,-0.06,-0.035,0.043,0.005,-0.047,0.04,-0.025,-0.075,-0.065,-0.065,-0.05
0.712,-0.025,-0.06,-0.035,0.043,0.005,-0.047,0.04,-0.021,-0.075,-0.065,-0.065,-0.05
0.714,-0.025,-0.06,-0.035,0.043,0.005,-0.047,0.04,-0.019,-0.075,-0.068,-0.064,-0.05
0.716,-0.025,-0.06,-0.035,0.043,0.005,-0.047,0.04,-0.021,-0.075,-0.071,-0.067,-0.05
0.718,-0.025,-0.06,-0.035,0.043,0.005,-0.047,0.04,-0.019,-0.075,-0.07,-0.07,-0.05
0.72,-0.025,-0.06,-0.035,0.043,0.005,-0.047,0.04,-0.015,-0.075,-0.07,-0.07,-0.05
0.722,-0.025,-0.06,-0.035,0.043,0.005,-0.047,0.04,-0.015,-0.075,-0.07,-0.07,-0.05
0.724,-0.028,-0.06,-0.032,0.044,0.002,-0.046,0.04,-0.015,-0.075,-0.069,-0.073,-0.051
0.726,-0.031,-0.06,-0.029,0.045,-0.001,-0.045,0.04,-0.015,-0.075,-0.072,-0.076,-0.048
0.728,-0.03,-0.06,-0.03,0.045,0.0,-0.045,0.039,-0.014,-0.075,-0.075,-0.075,-0.045
0.73,-0.03,-0.06,-0.03,0.045,0.0,-0.045,0.04,-0.01,-0.075,-0.075,-0.075,-0.045
0.732,-0.03,-0.06,-0.03,0.045,0.0,-0.045,0.057,-0.01,-0.071,-0.075,-0.079,-0.045
0.734,-0.03,-0.06,-0.03,0.045,0.0,-0.045,0.059,-0.01,-0.07,-0.075,-0.081,-0.045
0.736,-0.03,-0.06,-0.03,0.045,0.0,-0.045,0.054,-0.01,-0.07,-0.075,-0.079,-0.045
0.738,-0.03,-0.06,-0.03,0.045,0.0,-0.045,0.055,-0.009,-0.07,-0.075,-0.081,-0.045
0.74,-0.03,-0.06,-0.03,0.045,0.0,-0.045,0.055,-0.005,-0.07,-0.075,-0.085,-0.045
0.742,-0.029,-0.06,-0.03,0.044,0.001,-0.045,0.051,-0.005,-0.066,-0.075,-0.085,-0.045
0.744,-0.036,-0.063,-0.027,0.05,-0.004,-0.045,0.05,-0.006,-0.065,-0.075,-0.084,-0.045
0.746,-0.041,-0.066,-0.024,0.054,-0.008,-0.045,0.05,-0.003,-0.065,-0.075,-0.087,-0.045
0.748,-0.04,-0.065,-0.025,0.053,-0.007,-0.045,0.05,0.0,-0.065,-0.075,-0.09,-0.045
0.75,-0.04,-0.065,-0.025,0.053,-0.007,-0.045,0.05,0.0,-0.065,-0.075,-0.09,-0.045
0.752,-0.044,-0.065,-0.021,0.055,-0.011,-0.043,0.046,0.0,-0.061,-0.075,-0.09,-0.045
0.754,-0.045,-0.064,-0.02,0.055,-0.012,-0.041,0.045,-0.001,-0.06,-0.078,-0.091,-0.045
0.756,-0.047,-0.067,-0.02,0.057,-0.013,-0.043,0.045,0.002,-0.06,-0.081,-0.088,-0.045
0.758,-0.05,-0.07,-0.02,0.06,-0.015,-0.045,0.045,0.005,-0.06,-0.08,-0.085,-0.045
0.76,-0.05,-0.07,-0.02,0.06,-0.015,-0.045,0.045,0.005,-0.06,-0.08,-0.085,-0.045
0.762,-0.054,-0.07,-0.016,0.062,-0.019,-0.042,0.041,0.005,-0.06,-0.08,-0.085,-0.045
0.764,-0.055,-0.07,-0.015,0.063,-0.02,-0.042,0.039,0.004,-0.057,-0.08,-0.085,-0.045
0.766,-0.055,-0.07,-0.015,0.063,-0.02,-0.042,0.041,0.007,-0.054,-0.08,-0.085,-0.045
0.768,-0.054,-0.069,-0.015,0.062,-0.019,-0.042,0.039,0.01,-0.055,-0.08,-0.085,-0.045
0.77,-0.05,-0.065,-0.015,0.058,-0.017,-0.04,0.035,0.01,-0.055,-0.08,-0.085,-0.045
0.772,-0.054,-0.065,-0.011,0.059,-0.021,-0.037,0.035,0.014,-0.055,-0.08,-0.085,-0.045
0.774,-0.056,-0.066,-0.009,0.061,-0.023,-0.037,0.035,0.016,-0.052,-0.08,-0.085,-0.045
0.776,-0.052,-0.063,-0.011,0.058,-0.021,-0.037,0.035,0.014,-0.049,-0.08,-0.085,-0.045
0.778,-0.05,-0.06,-0.009,0.055,-0.021,-0.034,0.034,0.016,-0.05,-0.08,-0.085,-0.045
0.78,-0.055,-0.06,-0.005,0.058,-0.025,-0.032,0.03,0.02,-0.05,-0.08,-0.085,-0.045
0.782,-0.055,-0.06,-0.005,0.058,-0.025,-0.032,0.03,0.02,-0.05,-0.076,-0.085,-0.041
0.784,-0.056,-0.06,-0.005,0.058,-0.025,-0.032,0.03,0.019,-0.051,-0.075,-0.085,-0.039
0.786,-0.053,-0.058,-0.005,0.056,-0.023,-0.031,0.03,0.022,-0.048,-0.075,-0.085,-0.041
0.788,-0.05,-0.055,-0.004,0.053,-0.023,-0.029,0.031,0.025,-0.045,-0.075,-0.085,-0.039
0.79,-0.055,-0.055,0.0,0.055,-0.027,-0.027,0.035,0.025,-0.045,-0.075,-0.085,-0.035
0.792,-0.056,-0.055,0.0,0.056,-0.027,-0.027,0.035,0.025,-0.045,-0.071,-0.085,-0.035
0.794,-0.052,-0.052,0.0,0.052,-0.026,-0.026,0.035,0.028,-0.045,-0.07,-0.085,-0.036
0.796,-0.05,-0.05,0.0,0.05,-0.025,-0.025,0.035,0.03,-0.045,-0.07,-0.085,-0.033
0.798,-0.05,-0.05,0.0,0.05,-0.025,-0.025,0.035,0.03,-0.045,-0.07,-0.085,-0.03
0.8,-0.05,-0.05,0.0,0.05,-0.025,-0.025,0.035,0.03,-0.045,-0.07,-0.085,-0.03
0.802,-0.05,-0.05,0.0,0.05,-0.025,-0.025,0.035,0.026,-0.045,-0.066,-0.085,-0.03
0.804,-0.047,-0.047,0.0,0.047,-0.023,-0.023,0.035,0.024,-0.045,-0.065,-0.085,-0.027
0.806,-0.044,-0.044,0.0,0.044,-0.022,-0.022,0.035,0.026,-0.045,-0.065,-0.085,-0.024
0.808,-0.045,-0.045,0.0,0.045,-0.022,-0.022,0.035,0.024,-0.045,-0.065,-0.085,-0.025
0.81,-0.045,-0.045,0.0,0.045,-0.022,-0.022,0.035,0.02,-0.045,-0.065,-0.085,-0.025
0.812,-0.045,-0.045,0.0,0.045,-0.022,-0.022,0.035,0.02,-0.045,-0.065,-0.081,-0.021
0.814,-0.042,-0.042,0.0,0.042,-0.021,-0.021,0.032,0.02,-0.042,-0.062,-0.076,-0.019
0.816,-0.039,-0.039,0.0,0.039,-0.02,-0.02,0.029,0.02,-0.039,-0.059,-0.075,-0.021
0.818,-0.04,-0.04,0.0,0.04,-0.02,-0.02,0.03,0.019,-0.04,-0.06,-0.074,-0.019
0.82,-0.04,-0.04,0.0,0.04,-0.02,-0.02,0.03,0.015,-0.04,-0.06,-0.07,-0.015
0.822,-0.04,-0.04,0.0,0.04,-0.02,-0.02,0.026,0.015,-0.04,-0.06,-0.07,-0.015
0.824,-0.041,-0.041,0.0,0.041,-0.02,-0.02,0.025,0.015,-0.04,-0.057,-0.068,-0.016
0.826,-0.038,-0.038,0.0,0.038,-0.019,-0.019,0.025,0.015,-0.04,-0.054,-0.062,-0.013
0.828,-0.035,-0.035,0.0,0.035,-0.017,-0.017,0.025,0.014,-0.04,-0.055,-0.06,-0.01
0.83,-0.035,-0.035,0.0,0.035,-0.017,-0.017,0.025,0.01,-0.04,-0.055,-0.06,-0.01
0.832,-0.035,-0.035,0.0,0.035,-0.017,-0.017,0.021,0.01,-0.04,-0.055,-0.056,-0.01
0.834,-0.035,-0.035,0.0,0.035,-0.017,-0.017,0.02,0.011,-0.04,-0.055,-0.055,-0.009
0.836,-0.035,-0.035,0.0,0.035,-0.017,-0.017,0.02,0.008,-0.04,-0.055,-0.053,-0.012
0.838,-0.035,-0.035,0.0,0.035,-0.017,-0.017,0.02,0.005,-0.04,-0.055,-0.05,-0.015
0.84,-0.035,-0.035,0.0,0.035,-0.017,-0.017,0.02,0.005,-0.04,-0.055,-0.05,-0.015
0.842,-0.031,-0.031,0.0,0.031,-0.016,-0.015,0.016,0.005,-0.044,-0.055,-0.05,-0.015
0.844,-0.027,-0.03,-0.002,0.029,-0.013,-0.016,0.014,0.006,-0.045,-0.055,-0.051,-0.015
0.846,-0.022,-0.03,-0.008,0.027,-0.007,-0.019,0.016,0.003,-0.045,-0.055,-0.048,-0.015
0.848,-0.03,-0.03,0.0,0.03,-0.015,-0.014,0.014,0.0,-0.045,-0.055,-0.045,-0.015
0.85,-0.055,-0.03,0.025,0.042,-0.04,-0.002,0.01,0.0,-0.045,-0.055,-0.045,-0.015
0.852,-0.052,-0.03,0.022,0.041,-0.037,-0.004,0.01,0.0,-0.045,-0.055,-0.045,-0.015
0.854,-0.046,-0.027,0.019,0.037,-0.033,-0.003,0.01,0.001,-0.045,-0.055,-0.046,-0.015
0.856,-0.043,-0.024,0.018,0.033,-0.03,-0.003,0.01,-0.002,-0.045,-0.055,-0.043,-0.015
0.858,-0.04,-0.025,0.014,0.032,-0.027,-0.005,0.009,-0.005,-0.045,-0.055,-0.04,-0.015
0.86,-0.04,-0.025,0.015,0.032,-0.027,-0.005,0.005,-0.005,-0.045,-0.055,-0.04,-0.015
0.862,-0.04,-0.025,0.015,0.032,-0.027,-0.005,0.005,-0.005,-0.045,-0.055,-0.04,-0.015
0.864,-0.037,-0.025,0.012,0.031,-0.024,-0.006,0.005,-0.005,-0.045,-0.055,-0.04,-0.015
0.866,-0.034,-0.025,0.009,0.029,-0.021,-0.007,0.005,-0.005,-0.045,-0.055,-0.04,-0.015
0.868,-0.036,-0.026,0.01,0.031,-0.023,-0.007,0.006,-0.005,-0.045,-0.055,-0.039,-0.015
0.87,-0.04,-0.03,0.01,0.035,-0.025,-0.01,0.01,-0.005,-0.045,-0.055,-0.035,-0.015
0.872,-0.036,-0.03,0.006,0.033,-0.021,-0.012,0.01,-0.005,-0.045,-0.055,-0.035,-0.015
0.874,-0.034,-0.03,0.004,0.032,-0.019,-0.012,0.01,-0.008,-0.045,-0.055,-0.035,-0.015
0.876,-0.036,-0.03,0.006,0.032,-0.021,-0.012,0.01,-0.011,-0.045,-0.055,-0.035,-0.015
0.878,-0.034,-0.03,0.004,0.032,-0.019,-0.013,0.011,-0.01,-0.045,-0.055,-0.034,-0.015
0.88,-0.03,-0.03,0.0,0.03,-0.015,-0.015,0.015,-0.01,-0.045,-0.055,-0.03,-0.015
0.882,-0.03,-0.03,0.0,0.03,-0.015,-0.015,0.015,-0.01,-0.045,-0.055,-0.03,-0.015
0.884,-0.027,-0.03,-0.003,0.029,-0.012,-0.016,0.015,-0.01,-0.045,-0.055,-0.03,-0.015
0.886,-0.024,-0.03,-0.006,0.028,-0.009,-0.017,0.015,-0.01,-0.045,-0.055,-0.03,-0.015
0.888,-0.025,-0.03,-0.005,0.028,-0.01,-0.017,0.015,-0.01,-0.045,-0.055,-0.03,-0.015
0.89,-0.025,-0.03,-0.005,0.028,-0.01,-0.017,0.015,-0.01,-0.045,-0.055,-0.03,-0.015
0.892,-0.021,-0.03,-0.009,0.026,-0.006,-0.019,0.019,-0.014,-0.045,-0.055,-0.034,-0.019
0.894,-0.019,-0.03,-0.011,0.025,-0.004,-0.02,0.02,-0.015,-0.044,-0.055,-0.035,-0.02
0.896,-0.021,-0.03,-0.009,0.025,-0.006,-0.02,0.02,-0.015,-0.047,-0.055,-0.035,-0.022
0.898,-0.019,-0.03,-0.011,0.025,-0.004,-0.02,0.02,-0.015,-0.05,-0.055,-0.035,-0.026
0.9,-0.015,-0.03,-0.015,0.023,0.0,-0.022,0.02,-0.015,-0.05,-0.055,-0.035,-0.025
0.902,-0.015,-0.03,-0.015,0.023,0.0,-0.022,0.024,-0.015,-0.05,-0.055,-0.035,-0.025
0.904,-0.015,-0.03,-0.015,0.023,0.0,-0.022,0.025,-0.015,-0.05,-0.055,-0.035,-0.028
0.906,-0.015,-0.03,-0.015,0.023,0.0,-0.022,0.025,-0.015,-0.05,-0.055,-0.035,-0.031
0.908,-0.015,-0.03,-0.015,0.023,0.0,-0.022,0.025,-0.015,-0.05,-0.055,-0.035,-0.03
0.91,-0.015,-0.03,-0.015,0.023,0.0,-0.022,0.025,-0.015,-0.05,-0.055,-0.035,-0.03
0.912,-0.015,-0.03,-0.015,0.023,0.0,-0.022,0.025,-0.019,-0.05,-0.055,-0.035,-0.034
0.914,-0.016,-0.031,-0.015,0.024,0.0,-0.022,0.023,-0.02,-0.053,-0.055,-0.035,-0.036
0.916,-0.013,-0.028,-0.015,0.021,0.001,-0.021,0.015,-0.02,-0.056,-0.055,-0.035,-0.034
0.918,-0.019,-0.034,-0.015,0.027,-0.002,-0.024,0.02,-0.02,-0.055,-0.055,-0.036,-0.036
0.92,-0.04,-0.055,-0.015,0.048,-0.012,-0.035,0.045,-0.02,-0.055,-0.055,-0.04,-0.04
0.922,-0.037,-0.052,-0.015,0.045,-0.011,-0.033,0.042,-0.02,-0.055,-0.055,-0.04,-0.04
0.924,-0.034,-0.049,-0.015,0.042,-0.01,-0.031,0.036,-0.02,-0.055,-0.055,-0.04,-0.039
0.926,-0.035,-0.05,-0.015,0.043,-0.01,-0.032,0.033,-0.02,-0.055,-0.055,-0.04,-0.042
0.928,-0.035,-0.05,-0.015,0.043,-0.01,-0.032,0.03,-0.02,-0.055,-0.055,-0.04,-0.045
0.93,-0.035,-0.05,-0.015,0.043,-0.01,-0.032,0.03,-0.02,-0.055,-0.055,-0.04,-0.045
0.932,-0.035,-0.05,-0.015,0.043,-0.01,-0.032,0.026,-0.02,-0.059,-0.055,-0.04,-0.045
0.934,-0.032,-0.047,-0.015,0.04,-0.008,-0.031,0.021,-0.02,-0.06,-0.055,-0.04,-0.045
0.936,-0.029,-0.044,-0.015,0.037,-0.007,-0.03,0.02,-0.02,-0.06,-0.055,-0.04,-0.045
0.938,-0.03,-0.045,-0.015,0.038,-0.007,-0.03,0.019,-0.02,-0.06,-0.055,-0.04,-0.045
0.94,-0.03,-0.045,-0.015,0.038,-0.007,-0.03,0.015,-0.02,-0.06,-0.055,-0.04,-0.045
0.942,-0.03,-0.045,-0.015,0.038,-0.007,-0.03,0.011,-0.02,-0.06,-0.055,-0.04,-0.045
0.944,-0.03,-0.045,-0.015,0.038,-0.007,-0.03,0.009,-0.02,-0.06,-0.055,-0.039,-0.045
0.946,-0.03,-0.045,-0.015,0.038,-0.007,-0.03,0.012,-0.02,-0.06,-0.055,-0.042,-0.045
0.948,-0.029,-0.044,-0.015,0.037,-0.007,-0.03,0.015,-0.02,-0.06,-0.055,-0.045,-0.045
0.95,-0.025,-0.04,-0.015,0.033,-0.005,-0.027,0.015,-0.02,-0.06,-0.055,-0.045,-0.045
0.952,-0.025,-0.04,-0.015,0.033,-0.005,-0.027,0.015,-0.02,-0.06,-0.055,-0.045,-0.045
0.954,-0.025,-0.04,-0.015,0.033,-0.005,-0.027,0.015,-0.02,-0.06,-0.055,-0.045,-0.045
0.956,-0.025,-0.04,-0.015,0.033,-0.005,-0.027,0.015,-0.02,-0.06,-0.055,-0.045,-0.045
0.958,-0.026,-0.04,-0.015,0.033,-0.005,-0.027,0.015,-0.02,-0.06,-0.055,-0.045,-0.045
0.96,-0.025,-0.04,-0.015,0.033,-0.005,-0.027,0.015,-0.02,-0.06,-0.055,-0.045,-0.045
0.962,-0.013,-0.036,-0.022,0.025,0.005,-0.029,0.015,-0.02,-0.06,-0.055,-0.045,-0.045
0.964,-0.002,-0.035,-0.033,0.019,0.016,-0.034,0.015,-0.02,-0.06,-0.055,-0.045,-0.045
0.966,-0.001,-0.035,-0.034,0.019,0.017,-0.034,0.015,-0.02,-0.06,-0.055,-0.045,-0.045
0.968,-0.006,-0.035,-0.029,0.02,0.012,-0.032,0.015,-0.02,-0.06,-0.055,-0.045,-0.045
0.97,-0.005,-0.035,-0.03,0.02,0.013,-0.032,0.015,-0.02,-0.06,-0.055,-0.045,-0.045
0.972,-0.005,-0.035,-0.03,0.02,0.013,-0.032,0.015,-0.02,-0.06,-0.055,-0.045,-0.045
0.974,-0.005,-0.035,-0.03,0.02,0.013,-0.032,0.015,-0.02,-0.06,-0.055,-0.045,-0.045
0.976,-0.005,-0.035,-0.03,0.02,0.013,-0.032,0.015,-0.02,-0.06,-0.055,-0.045,-0.045
0.978,-0.005,-0.035,-0.03,0.02,0.013,-0.032,0.015,-0.02,-0.06,-0.055,-0.045,-0.045
0.98,-0.005,-0.035,-0.03,0.02,0.013,-0.032,0.015,-0.02,-0.06,-0.055,-0.045,-0.045
0.982,-0.005,-0.035,-0.03,0.02,0.013,-0.032,0.015,-0.024,-0.06,-0.055,-0.045,-0.049
0.984,-0.005,-0.035,-0.03,0.02,0.013,-0.032,0.015,-0.025,-0.06,-0.055,-0.045,-0.051
0.986,-0.005,-0.035,-0.03,0.02,0.013,-0.032,0.015,-0.027,-0.06,-0.055,-0.045,-0.049
0.988,-0.005,-0.035,-0.03,0.02,0.013,-0.032,0.015,-0.03,-0.06,-0.055,-0.045,-0.051
0.99,-0.005,-0.035,-0.03,0.02,0.013,-0.032,0.015,-0.03,-0.06,-0.055,-0.045,-0.055
0.992,-0.001,-0.031,-0.03,0.016,0.015,-0.03,0.015,-0.03,-0.06,-0.055,-0.045,-0.055
0.994,0.0,-0.03,-0.03,0.015,0.015,-0.03,0.015,-0.03,-0.06,-0.055,-0.045,-0.055
0.996,0.003,-0.027,-0.03,0.012,0.016,-0.029,0.015,-0.03,-0.06,-0.055,-0.045,-0.055
0.998,-0.005,-0.035,-0.03,0.02,0.012,-0.033,0.015,-0.03,-0.06,-0.055,-0.045,-0.055
1.0,-0.03,-0.06,-0.03,0.045,0.0,-0.045,0.015,-0.03,-0.06,-0.055,-0.045,-0.055
1.002,-0.027,-0.057,-0.03,0.042,0.002,-0.043,0.011,-0.03,-0.06,-0.059,-0.045,-0.055
1.004,-0.024,-0.054,-0.03,0.039,0.004,-0.041,0.01,-0.03,-0.059,-0.06,-0.045,-0.055
1.006,-0.025,-0.055,-0.03,0.04,0.003,-0.042,0.01,-0.03,-0.062,-0.06,-0.046,-0.055
1.008,-0.025,-0.055,-0.03,0.04,0.003,-0.042,0.01,-0.03,-0.065,-0.06,-0.051,-0.055
1.01,-0.025,-0.055,-0.03,0.04,0.003,-0.042,0.01,-0.03,-0.065,-0.06,-0.055,-0.055
1.012,-0.021,-0.051,-0.03,0.036,0.005,-0.04,0.01,-0.03,-0.065,-0.06,-0.051,-0.055
1.014,-0.02,-0.05,-0.03,0.035,0.005,-0.04,0.007,-0.033,-0.065,-0.06,-0.049,-0.055
1.016,-0.02,-0.05,-0.03,0.035,0.005,-0.04,0.004,-0.036,-0.065,-0.06,-0.05,-0.055
1.018,-0.02,-0.05,-0.03,0.035,0.005,-0.04,0.005,-0.035,-0.065,-0.061,-0.05,-0.055
1.02,-0.02,-0.05,-0.03,0.035,0.005,-0.04,0.005,-0.035,-0.065,-0.065,-0.05,-0.055
1.022,-0.02,-0.046,-0.026,0.033,0.003,-0.036,0.005,-0.035,-0.065,-0.065,-0.05,-0.055
1.024,-0.02,-0.045,-0.025,0.033,0.003,-0.035,0.005,-0.035,-0.065,-0.065,-0.05,-0.055
1.026,-0.02,-0.045,-0.025,0.033,0.003,-0.035,0.005,-0.035,-0.065,-0.065,-0.05,-0.055
1.028,-0.02,-0.045,-0.025,0.033,0.003,-0.035,0.004,-0.035,-0.065,-0.065,-0.05,-0.055
1.03,-0.02,-0.045,-0.025,0.033,0.003,-0.035,0.0,-0.035,-0.065,-0.065,-0.05,-0.055
1.032,-0.02,-0.045,-0.025,0.033,0.003,-0.035,0.0,-0.035,-0.069,-0.065,-0.05,-0.055
1.034,-0.017,-0.042,-0.025,0.03,0.004,-0.033,0.0,-0.035,-0.07,-0.064,-0.05,-0.055
1.036,-0.014,-0.039,-0.025,0.027,0.005,-0.032,0.0,-0.035,-0.07,-0.067,-0.05,-0.055
1.038,-0.015,-0.04,-0.025,0.028,0.005,-0.032,0.0,-0.035,-0.07,-0.07,-0.05,-0.055
1.04,-0.015,-0.04,-0.025,0.028,0.005,-0.032,0.0,-0.035,-0.07,-0.07,-0.05,-0.055
1.042,-0.015,-0.04,-0.025,0.028,0.005,-0.032,-0.004,-0.031,-0.07,-0.07,-0.05,-0.055
1.044,-0.012,-0.037,-0.025,0.025,0.007,-0.031,-0.005,-0.03,-0.07,-0.07,-0.05,-0.055
1.046,-0.009,-0.034,-0.025,0.022,0.009,-0.03,-0.005,-0.03,-0.07,-0.07,-0.05,-0.055
1.048,-0.011,-0.035,-0.024,0.023,0.007,-0.03,-0.005,-0.03,-0.07,-0.07,-0.05,-0.055
1.05,-0.015,-0.035,-0.02,0.025,0.003,-0.027,-0.005,-0.03,-0.07,-0.07,-0.05,-0.055
1.052,-0.015,-0.035,-0.02,0.025,0.003,-0.027,-0.005,-0.03,-0.07,-0.07,-0.05,-0.051
1.054,-0.015,-0.036,-0.02,0.026,0.003,-0.027,-0.005,-0.03,-0.07,-0.071,-0.05,-0.05
1.056,-0.013,-0.033,-0.02,0.023,0.004,-0.026,-0.004,-0.03,-0.07,-0.068,-0.05,-0.05
1.058,-0.01,-0.03,-0.02,0.02,0.005,-0.025,0.001,-0.03,-0.07,-0.065,-0.05,-0.05
1.06,-0.01,-0.03,-0.02,0.02,0.005,-0.025,0.005,-0.03,-0.07,-0.065,-0.05,-0.05
1.062,-0.01,-0.03,-0.02,0.02,0.005,-0.025,0.005,-0.03,-0.07,-0.065,-0.05,-0.05
1.064,-0.01,-0.03,-0.02,0.02,0.005,-0.025,0.008,-0.03,-0.07,-0.065,-0.049,-0.05
1.066,-0.01,-0.03,-0.02,0.02,0.005,-0.025,0.01,-0.03,-0.07,-0.065,-0.052,-0.05
1.068,-0.01,-0.03,-0.02,0.02,0.005,-0.025,0.01,-0.03,-0.07,-0.065,-0.055,-0.05
1.07,-0.01,-0.03,-0.02,0.02,0.005,-0.025,0.015,-0.03,-0.07,-0.065,-0.055,-0.05
1.072,-0.01,-0.03,-0.02,0.02,0.005,-0.025,0.02,-0.03,-0.07,-0.065,-0.055,-0.05
1.074,-0.011,-0.03,-0.019,0.021,0.004,-0.024,0.02,-0.03,-0.07,-0.065,-0.055,-0.05
1.076,-0.006,-0.03,-0.024,0.018,0.009,-0.027,0.022,-0.03,-0.07,-0.065,-0.055,-0.05
1.078,0.0,-0.03,-0.03,0.015,0.015,-0.03,0.026,-0.03,-0.07,-0.065,-0.055,-0.05
1.08,-0.005,-0.03,-0.025,0.018,0.01,-0.027,0.025,-0.03,-0.07,-0.065,-0.055,-0.05
1.082,-0.006,-0.03,-0.025,0.019,0.009,-0.027,0.021,-0.03,-0.07,-0.065,-0.055,-0.05
1.084,-0.002,-0.027,-0.025,0.015,0.012,-0.026,0.02,-0.03,-0.07,-0.062,-0.055,-0.05
1.086,0.0,-0.024,-0.025,0.012,0.013,-0.025,0.02,-0.03,-0.07,-0.059,-0.055,-0.05
1.088,0.0,-0.025,-0.025,0.013,0.013,-0.025,0.02,-0.03,-0.07,-0.06,-0.055,-0.05
1.09,0.0,-0.025,-0.025,0.013,0.013,-0.025,0.02,-0.03,-0.07,-0.06,-0.055,-0.05
1.092,0.0,-0.025,-0.025,0.013,0.013,-0.025,0.016,-0.03,-0.07,-0.06,-0.055,-0.05
1.094,0.001,-0.025,-0.026,0.013,0.014,-0.025,0.015,-0.031,-0.07,-0.06,-0.055,-0.05
1.096,-0.002,-0.025,-0.023,0.014,0.011,-0.024,0.015,-0.028,-0.07,-0.06,-0.055,-0.05
1.098,-0.005,-0.025,-0.02,0.015,0.008,-0.022,0.015,-0.025,-0.07,-0.06,-0.055,-0.05
1.1,-0.005,-0.025,-0.02,0.015,0.008,-0.022,0.015,-0.025,-0.07,-0.06,-0.055,-0.05
1.102,-0.005,-0.025,-0.02,0.015,0.008,-0.022,0.011,-0.025,-0.07,-0.06,-0.055,-0.05
1.104,-0.005,-0.025,-0.02,0.015,0.008,-0.022,0.01,-0.025,-0.07,-0.06,-0.055,-0.049
1.106,-0.005,-0.025,-0.02,0.015,0.008,-0.022,0.01,-0.025,-0.07,-0.06,-0.055,-0.052
1.108,-0.005,-0.025,-0.02,0.015,0.008,-0.022,0.01,-0.025,-0.07,-0.06,-0.055,-0.055
1.11,-0.005,-0.025,-0.02,0.015,0.008,-0.022,0.01,-0.025,-0.07,-0.06,-0.055,-0.055
1.112,-0.009,-0.029,-0.02,0.019,0.006,-0.025,0.01,-0.025,-0.07,-0.056,-0.055,-0.055
1.114,-0.013,-0.03,-0.017,0.022,0.002,-0.023,0.007,-0.025,-0.07,-0.055,-0.055,-0.055
1.116,-0.017,-0.032,-0.014,0.025,-0.001,-0.023,0.004,-0.025,-0.07,-0.055,-0.055,-0.055
1.118,-0.021,-0.036,-0.015,0.029,-0.002,-0.025,0.005,-0.025,-0.07,-0.055,-0.055,-0.055
1.12,-0.02,-0.035,-0.015,0.028,-0.002,-0.025,0.005,-0.025,-0.07,-0.055,-0.055,-0.055
1.122,-0.018,-0.033,-0.015,0.026,-0.001,-0.024,0.005,-0.025,-0.07,-0.055,-0.055,-0.055
1.124,-0.033,-0.048,-0.015,0.041,-0.008,-0.032,0.002,-0.025,-0.07,-0.055,-0.055,-0.055
1.126,-0.04,-0.055,-0.015,0.048,-0.012,-0.035,-0.001,-0.025,-0.07,-0.055,-0.055,-0.055
1.128,-0.034,-0.049,-0.015,0.042,-0.01,-0.032,0.0,-0.025,-0.07,-0.055,-0.055,-0.055
1.13,-0.035,-0.05,-0.015,0.043,-0.01,-0.032,0.0,-0.025,-0.07,-0.055,-0.055,-0.055
1.132,-0.036,-0.05,-0.015,0.043,-0.011,-0.032,0.0,-0.025,-0.066,-0.055,-0.055,-0.055
1.134,-0.032,-0.05,-0.018,0.041,-0.007,-0.034,-0.001,-0.025,-0.064,-0.055,-0.054,-0.055
1.136,-0.03,-0.05,-0.02,0.04,-0.005,-0.035,0.002,-0.025,-0.066,-0.055,-0.057,-0.055
1.138,-0.029,-0.05,-0.021,0.04,-0.004,-0.035,0.005,-0.025,-0.064,-0.055,-0.06,-0.055
1.14,-0.025,-0.05,-0.025,0.038,0.0,-0.037,0.005,-0.025,-0.06,-0.055,-0.06,-0.055
1.142,-0.026,-0.05,-0.025,0.039,0.0,-0.037,0.005,-0.025,-0.06,-0.055,-0.06,-0.055
1.144,-0.019,-0.047,-0.028,0.033,0.005,-0.037,0.008,-0.025,-0.06,-0.055,-0.06,-0.055
1.146,-0.014,-0.044,-0.031,0.029,0.009,-0.037,0.011,-0.025,-0.06,-0.055,-0.06,-0.055
1.148,-0.015,-0.045,-0.03,0.03,0.008,-0.037,0.01,-0.025,-0.059,-0.055,-0.06,-0.055
1.15,-0.015,-0.045,-0.03,0.03,0.008,-0.037,0.01,-0.025,-0.055,-0.055,-0.06,-0.055
1.152,-0.015,-0.045,-0.03,0.03,0.008,-0.037,0.014,-0.021,-0.055,-0.055,-0.06,-0.055
1.154,-0.015,-0.045,-0.03,0.03,0.008,-0.037,0.016,-0.02,-0.055,-0.055,-0.06,-0.055
1.156,-0.015,-0.045,-0.03,0.03,0.008,-0.037,0.014,-0.02,-0.055,-0.055,-0.06,-0.055
1.158,-0.015,-0.045,-0.03,0.03,0.008,-0.037,0.016,-0.02,-0.054,-0.055,-0.06,-0.055
1.16,-0.015,-0.045,-0.03,0.03,0.008,-0.037,0.02,-0.02,-0.05,-0.055,-0.06,-0.055
1.162,-0.011,-0.041,-0.03,0.026,0.01,-0.035,0.02,-0.02,-0.05,-0.055,-0.06,-0.055
1.164,-0.01,-0.04,-0.03,0.025,0.01,-0.035,0.019,-0.02,-0.051,-0.056,-0.06,-0.055
1.166,-0.01,-0.04,-0.03,0.025,0.01,-0.035,0.022,-0.02,-0.048,-0.053,-0.06,-0.055
1.168,-0.01,-0.04,-0.03,0.025,0.01,-0.035,0.025,-0.02,-0.045,-0.05,-0.06,-0.055
1.17,-0.01,-0.04,-0.03,0.025,0.01,-0.035,0.025,-0.02,-0.045,-0.05,-0.06,-0.055
1.172,-0.01,-0.04,-0.03,0.025,0.01,-0.035,0.025,-0.02,-0.045,-0.05,-0.06,-0.055
1.174,-0.01,-0.04,-0.03,0.025,0.01,-0.035,0.028,-0.02,-0.046,-0.05,-0.06,-0.055
1.176,-0.01,-0.04,-0.03,0.025,0.01,-0.035,0.03,-0.02,-0.043,-0.05,-0.06,-0.055
1.178,-0.01,-0.04,-0.03,0.025,0.01,-0.035,0.03,-0.02,-0.04,-0.05,-0.06,-0.055
1.18,-0.01,-0.04,-0.03,0.025,0.01,-0.035,0.03,-0.02,-0.04,-0.05,-0.06,-0.055
1.182,-0.01,-0.04,-0.03,0.025,0.01,-0.035,0.026,-0.02,-0.04,-0.05,-0.06,-0.055
1.184,-0.01,-0.04,-0.03,0.025,0.01,-0.035,0.025,-0.02,-0.039,-0.05,-0.06,-0.055
1.186,-0.01,-0.04,-0.03,0.025,0.01,-0.035,0.025,-0.02,-0.042,-0.05,-0.06,-0.055
1.188,-0.01,-0.04,-0.03,0.025,0.01,-0.035,0.025,-0.02,-0.045,-0.05,-0.06,-0.055
1.19,-0.01,-0.04,-0.03,0.025,0.01,-0.035,0.025,-0.02,-0.045,-0.05,-0.06,-0.055
1.192,-0.01,-0.04,-0.03,0.025,0.01,-0.035,0.021,-0.02,-0.045,-0.05,-0.06,-0.055
1.194,-0.01,-0.04,-0.03,0.025,0.01,-0.035,0.02,-0.02,-0.045,-0.05,-0.06,-0.055
1.196,-0.01,-0.04,-0.03,0.025,0.01,-0.035,0.02,-0.02,-0.045,-0.05,-0.06,-0.055
1.198,-0.01,-0.04,-0.03,0.025,0.01,-0.035,0.02,-0.02,-0.045,-0.05,-0.06,-0.055
1.2,-0.01,-0.04,-0.03,0.025,0.01,-0.035,0.02,-0.02,-0.045,-0.05,-0.06,-0.055
1.202,-0.01,-0.04,-0.03,0.025,0.01,-0.035,0.016,-0.02,-0.045,-0.05,-0.06,-0.055
1.204,-0.013,-0.04,-0.027,0.027,0.007,-0.033,0.015,-0.019,-0.045,-0.05,-0.06,-0.055
1.206,-0.016,-0.04,-0.024,0.028,0.004,-0.032,0.015,-0.022,-0.045,-0.05,-0.06,-0.055
1.208,-0.015,-0.04,-0.025,0.028,0.005,-0.032,0.015,-0.025,-0.045,-0.05,-0.06,-0.055
1.21,-0.015,-0.04,-0.025,0.028,0.005,-0.032,0.015,-0.025,-0.045,-0.05,-0.06,-0.055
1.212,-0.015,-0.04,-0.025,0.028,0.005,-0.032,0.015,-0.025,-0.045,-0.05,-0.06,-0.055
1.214,-0.014,-0.04,-0.026,0.028,0.006,-0.032,0.012,-0.024,-0.048,-0.05,-0.06,-0.056
1.216,-0.017,-0.04,-0.023,0.029,0.003,-0.031,0.009,-0.027,-0.051,-0.05,-0.06,-0.053
1.218,-0.02,-0.04,-0.02,0.03,0.0,-0.03,0.01,-0.03,-0.05,-0.05,-0.06,-0.05
1.22,-0.02,-0.04,-0.02,0.03,0.0,-0.03,0.01,-0.03,-0.05,-0.05,-0.06,-0.05
1.222,-0.02,-0.04,-0.02,0.03,0.0,-0.03,0.01,-0.03,-0.05,-0.046,-0.06,-0.05
1.224,-0.02,-0.04,-0.02,0.03,0.0,-0.03,0.007,-0.03,-0.05,-0.045,-0.06,-0.05
1.226,-0.02,-0.04,-0.02,0.03,0.0,-0.03,0.004,-0.03,-0.05,-0.045,-0.06,-0.05
1.228,-0.02,-0.04,-0.02,0.03,0.0,-0.03,0.005,-0.031,-0.05,-0.045,-0.06,-0.05
1.23,-0.02,-0.04,-0.02,0.03,0.0,-0.03,0.005,-0.035,-0.05,-0.045,-0.06,-0.05
1.232,-0.024,-0.04,-0.016,0.033,-0.004,-0.028,0.005,-0.035,-0.05,-0.045,-0.06,-0.05
1.234,-0.025,-0.039,-0.015,0.033,-0.005,-0.026,0.005,-0.035,-0.05,-0.045,-0.06,-0.05
1.236,-0.027,-0.042,-0.015,0.035,-0.006,-0.028,0.006,-0.035,-0.05,-0.045,-0.06,-0.05
1.238,-0.031,-0.045,-0.015,0.038,-0.007,-0.03,0.011,-0.035,-0.05,-0.045,-0.06,-0.05
1.24,-0.03,-0.045,-0.015,0.038,-0.007,-0.03,0.015,-0.035,-0.05,-0.045,-0.06,-0.05
1.242,-0.03,-0.045,-0.015,0.038,-0.007,-0.03,0.015,-0.031,-0.046,-0.045,-0.06,-0.05
1.244,-0.033,-0.045,-0.012,0.039,-0.01,-0.028,0.018,-0.03,-0.045,-0.045,-0.061,-0.05
1.246,-0.036,-0.045,-0.009,0.04,-0.013,-0.027,0.022,-0.03,-0.045,-0.045,-0.058,-0.05
1.248,-0.035,-0.045,-0.01,0.04,-0.012,-0.027,0.026,-0.03,-0.045,-0.044,-0.055,-0.05
1.25,-0.035,-0.045,-0.01,0.04,-0.012,-0.027,0.025,-0.03,-0.045,-0.04,-0.055,-0.05
1.252,-0.035,-0.045,-0.01,0.04,-0.012,-0.027,0.021,-0.03,-0.045,-0.04,-0.055,-0.05
1.254,-0.035,-0.045,-0.01,0.04,-0.012,-0.027,0.02,-0.03,-0.045,-0.04,-0.055,-0.05
1.256,-0.036,-0.045,-0.009,0.04,-0.013,-0.026,0.02,-0.03,-0.045,-0.04,-0.055,-0.05
1.258,-0.033,-0.045,-0.012,0.039,-0.01,-0.028,0.02,-0.03,-0.045,-0.04,-0.055,-0.05
1.26,-0.02,-0.045,-0.025,0.033,0.003,-0.035,0.02,-0.03,-0.045,-0.04,-0.055,-0.05
1.262,-0.011,-0.045,-0.034,0.028,0.012,-0.04,0.02,-0.03,-0.045,-0.04,-0.055,-0.05
1.264,-0.013,-0.045,-0.032,0.029,0.01,-0.038,0.02,-0.03,-0.045,-0.04,-0.055,-0.05
1.266,-0.016,-0.045,-0.029,0.03,0.007,-0.037,0.02,-0.03,-0.045,-0.04,-0.055,-0.05
1.268,-0.015,-0.045,-0.03,0.03,0.008,-0.037,0.02,-0.03,-0.044,-0.04,-0.055,-0.05
1.27,-0.015,-0.045,-0.03,0.03,0.008,-0.037,0.02,-0.03,-0.04,-0.04,-0.055,-0.05
1.272,-0.015,-0.045,-0.03,0.03,0.008,-0.037,0.02,-0.03,-0.04,-0.04,-0.055,-0.046
1.274,-0.014,-0.045,-0.031,0.03,0.009,-0.037,0.02,-0.03,-0.04,-0.039,-0.052,-0.045
1.276,-0.017,-0.045,-0.028,0.031,0.006,-0.036,0.02,-0.03,-0.04,-0.042,-0.049,-0.045
1.278,-0.02,-0.045,-0.025,0.033,0.003,-0.035,0.019,-0.03,-0.04,-0.045,-0.05,-0.045
1.28,-0.02,-0.045,-0.025,0.033,0.003,-0.035,0.015,-0.03,-0.04,-0.045,-0.05,-0.045
1.282,-0.02,-0.045,-0.025,0.033,0.003,-0.035,0.015,-0.03,-0.04,-0.045,-0.05,-0.045
1.284,-0.02,-0.045,-0.025,0.033,0.003,-0.035,0.015,-0.03,-0.04,-0.048,-0.05,-0.045
1.286,-0.02,-0.045,-0.025,0.033,0.003,-0.035,0.015,-0.03,-0.04,-0.051,-0.05,-0.045
1.288,-0.02,-0.045,-0.025,0.033,0.003,-0.035,0.015,-0.03,-0.04,-0.05,-0.05,-0.045
1.29,-0.02,-0.045,-0.025,0.033,0.003,-0.035,0.015,-0.03,-0.04,-0.05,-0.05,-0.045
1.292,-0.028,-0.049,-0.021,0.039,-0.004,-0.035,0.015,-0.03,-0.04,-0.054,-0.05,-0.045
1.294,-0.031,-0.051,-0.02,0.041,-0.006,-0.035,0.015,-0.031,-0.041,-0.055,-0.05,-0.045
1.296,-0.028,-0.048,-0.02,0.038,-0.004,-0.034,0.015,-0.028,-0.038,-0.055,-0.05,-0.045
1.298,-0.034,-0.054,-0.02,0.044,-0.007,-0.037,0.015,-0.025,-0.035,-0.055,-0.05,-0.045
1.3,-0.05,-0.07,-0.02,0.06,-0.015,-0.045,0.015,-0.025,-0.035,-0.055,-0.05,-0.045
1.302,-0.046,-0.067,-0.02,0.056,-0.012,-0.043,0.015,-0.025,-0.035,-0.051,-0.046,-0.045
1.304,-0.047,-0.064,-0.017,0.056,-0.015,-0.04,0.014,-0.025,-0.035,-0.05,-0.045,-0.045
1.306,-0.051,-0.066,-0.014,0.059,-0.018,-0.04,0.017,-0.025,-0.035,-0.05,-0.045,-0.045
1.308,-0.049,-0.064,-0.015,0.057,-0.017,-0.04,0.02,-0.025,-0.035,-0.05,-0.045,-0.045
1.31,-0.045,-0.06,-0.015,0.053,-0.015,-0.037,0.02,-0.025,-0.035,-0.05,-0.045,-0.045
1.312,-0.045,-0.06,-0.015,0.053,-0.015,-0.037,0.02,-0.025,-0.035,-0.05,-0.041,-0.045
1.314,-0.045,-0.06,-0.015,0.053,-0.015,-0.037,0.019,-0.025,-0.035,-0.05,-0.04,-0.045
1.316,-0.045,-0.06,-0.015,0.053,-0.015,-0.037,0.022,-0.025,-0.035,-0.05,-0.04,-0.045
1.318,-0.045,-0.059,-0.014,0.053,-0.015,-0.036,0.025,-0.025,-0.035,-0.05,-0.04,-0.045
1.32,-0.045,-0.055,-0.01,0.05,-0.017,-0.032,0.025,-0.025,-0.035,-0.05,-0.04,-0.045
1.322,-0.044,-0.055,-0.01,0.049,-0.017,-0.032,0.025,-0.025,-0.035,-0.05,-0.036,-0.045
1.324,-0.049,-0.056,-0.007,0.053,-0.02,-0.031,0.025,-0.022,-0.035,-0.047,-0.035,-0.046
1.326,-0.048,-0.053,-0.005,0.051,-0.021,-0.029,0.025,-0.019,-0.035,-0.044,-0.035,-0.043
1.328,-0.045,-0.05,-0.004,0.048,-0.021,-0.026,0.026,-0.02,-0.035,-0.045,-0.035,-0.04
1.33,-0.05,-0.05,0.0,0.05,-0.025,-0.025,0.03,-0.02,-0.035,-0.045,-0.035,-0.04
1.332,-0.05,-0.05,0.0,0.05,-0.025,-0.025,0.03,-0.02,-0.035,-0.045,-0.035,-0.036
1.334,-0.054,-0.051,0.003,0.052,-0.028,-0.023,0.03,-0.02,-0.035,-0.045,-0.032,-0.035
1.336,-0.053,-0.048,0.005,0.05,-0.029,-0.021,0.03,-0.02,-0.035,-0.045,-0.029,-0.033
1.338,-0.05,-0.045,0.006,0.047,-0.028,-0.019,0.03,-0.02,-0.035,-0.045,-0.03,-0.03
1.34,-0.055,-0.045,0.01,0.05,-0.032,-0.017,0.03,-0.02,-0.035,-0.045,-0.03,-0.03
1.342,-0.055,-0.045,0.01,0.05,-0.032,-0.017,0.03,-0.02,-0.035,-0.045,-0.03,-0.026
1.344,-0.059,-0.046,0.013,0.053,-0.036,-0.017,0.03,-0.02,-0.035,-0.046,-0.027,-0.025
1.346,-0.055,-0.04,0.015,0.047,-0.035,-0.012,0.03,-0.02,-0.035,-0.042,-0.024,-0.023
1.348,-0.043,-0.027,0.016,0.035,-0.029,-0.005,0.029,-0.021,-0.036,-0.033,-0.025,-0.02
1.35,-0.04,-0.02,0.02,0.03,-0.03,0.0,0.03,-0.02,-0.035,-0.03,-0.025,-0.02
1.352,-0.032,-0.012,0.02,0.022,-0.026,0.004,0.042,-0.008,-0.023,-0.026,-0.025,-0.016
1.354,-0.025,-0.001,0.024,0.012,-0.024,0.011,0.052,0.002,-0.013,-0.019,-0.025,-0.015
1.356,-0.014,0.01,0.024,0.002,-0.019,0.017,0.057,0.009,-0.006,-0.012,-0.023,-0.013
1.358,-0.012,0.016,0.028,-0.003,-0.021,0.022,0.06,0.017,0.002,-0.009,-0.019,-0.01
1.36,-0.02,0.025,0.045,-0.003,-0.033,0.035,0.06,0.025,0.01,-0.005,-0.015,-0.01
1.362,0.0,0.041,0.042,-0.021,-0.021,0.041,0.059,0.033,0.018,0.003,-0.011,-0.006
1.364,0.011,0.05,0.039,-0.031,-0.014,0.044,0.068,0.04,0.026,0.009,-0.007,-0.005
1.366,0.008,0.048,0.04,-0.028,-0.016,0.044,0.081,0.054,0.035,0.011,-0.003,-0.005
1.368,0.014,0.054,0.04,-0.034,-0.013,0.047,0.085,0.066,0.041,0.017,0.001,-0.005
1.37,0.03,0.07,0.04,-0.05,-0.005,0.055,0.09,0.065,0.045,0.025,0.005,-0.005
1.372,0.027,0.067,0.04,-0.047,-0.007,0.053,0.111,0.081,0.061,0.029,0.009,-0.005
1.374,0.024,0.065,0.041,-0.044,-0.009,0.052,0.114,0.09,0.07,0.033,0.01,-0.005
1.376,0.025,0.063,0.038,-0.044,-0.007,0.05,0.109,0.089,0.07,0.037,0.009,-0.005
1.378,0.025,0.06,0.035,-0.043,-0.005,0.047,0.11,0.091,0.07,0.04,0.011,-0.005
1.38,0.025,0.06,0.035,-0.043,-0.005,0.047,0.11,0.1,0.07,0.04,0.015,-0.005
1.382,0.021,0.056,0.035,-0.039,-0.008,0.045,0.106,0.105,0.07,0.04,0.015,-0.005
1.384,0.02,0.055,0.035,-0.038,-0.008,0.045,0.104,0.1,0.067,0.043,0.015,-0.005
1.386,0.018,0.053,0.035,-0.036,-0.009,0.044,0.106,0.09,0.065,0.045,0.015,-0.005
1.388,0.014,0.049,0.035,-0.032,-0.01,0.042,0.102,0.084,0.064,0.045,0.016,-0.004
1.39,0.015,0.05,0.035,-0.033,-0.01,0.042,0.085,0.08,0.06,0.045,0.02,0.0
1.392,0.02,0.051,0.031,-0.035,-0.006,0.041,0.069,0.072,0.06,0.041,0.02,0.0
1.394,0.017,0.047,0.03,-0.032,-0.007,0.038,0.053,0.063,0.057,0.04,0.019,0.0
1.396,0.015,0.045,0.03,-0.03,-0.008,0.037,0.037,0.058,0.055,0.038,0.022,0.0
1.398,0.014,0.044,0.03,-0.029,-0.008,0.037,0.022,0.053,0.054,0.035,0.025,0.0
1.4,0.01,0.04,0.03,-0.025,-0.01,0.035,0.01,0.04,0.045,0.035,0.025,0.0
1.402,0.01,0.04,0.03,-0.025,-0.01,0.035,0.002,0.032,0.036,0.031,0.025,0.0
1.404,0.006,0.037,0.031,-0.022,-0.012,0.033,-0.005,0.024,0.032,0.03,0.026,0.0
1.406,0.007,0.035,0.028,-0.021,-0.011,0.031,-0.016,0.016,0.027,0.028,0.023,0.0
1.408,0.01,0.034,0.025,-0.022,-0.008,0.03,-0.027,0.008,0.018,0.025,0.02,0.0
1.41,0.005,0.03,0.025,-0.018,-0.01,0.027,-0.035,0.0,0.01,0.025,0.02,0.0
1.412,0.009,0.03,0.021,-0.019,-0.006,0.025,-0.044,-0.008,0.006,0.021,0.02,0.0
1.414,0.01,0.031,0.02,-0.02,-0.005,0.025,-0.043,-0.013,0.002,0.019,0.017,0.001
1.416,0.01,0.029,0.018,-0.02,-0.004,0.023,-0.038,-0.017,0.0,0.021,0.014,-0.002
1.418,0.009,0.024,0.015,-0.017,-0.003,0.019,-0.034,-0.021,-0.001,0.019,0.015,-0.005
1.42,0.005,0.02,0.015,-0.013,-0.005,0.017,-0.03,-0.025,-0.005,0.015,0.015,-0.005
1.422,0.01,0.02,0.011,-0.015,-0.001,0.015,-0.03,-0.03,-0.005,0.015,0.011,-0.005
1.424,0.007,0.017,0.01,-0.012,-0.002,0.013,-0.028,-0.027,-0.004,0.012,0.009,-0.008
1.426,0.006,0.015,0.008,-0.011,-0.002,0.011,-0.022,-0.024,-0.007,0.009,0.011,-0.011
1.428,0.01,0.015,0.004,-0.013,0.002,0.009,-0.02,-0.025,-0.01,0.01,0.009,-0.01
1.43,0.005,0.01,0.005,-0.008,0.0,0.007,-0.02,-0.025,-0.01,0.01,0.005,-0.01
1.432,0.0,0.005,0.005,-0.003,-0.003,0.005,-0.016,-0.025,-0.014,0.006,0.005,-0.014
1.434,0.003,0.005,0.002,-0.005,0.0,0.003,-0.011,-0.025,-0.016,0.005,0.006,-0.016
1.436,0.004,0.003,-0.001,-0.003,0.002,0.001,-0.01,-0.025,-0.014,0.003,0.003,-0.014
1.438,0.0,0.0,0.0,0.0,0.0,0.0,-0.009,-0.025,-0.016,-0.001,0.0,-0.016
1.44,0.0,0.0,0.0,0.0,0.0,0.0,-0.005,-0.025,-0.02,0.0,0.0,-0.02
1.442,-0.004,-0.008,-0.004,0.006,0.0,-0.006,-0.005,-0.025,-0.02,0.0,0.0,-0.02
1.444,-0.008,-0.014,-0.006,0.011,-0.001,-0.009,-0.005,-0.025,-0.02,-0.003,-0.003,-0.019
1.446,-0.012,-0.017,-0.004,0.015,-0.004,-0.01,-0.005,-0.025,-0.02,-0.006,-0.006,-0.022
1.448,-0.015,-0.021,-0.006,0.019,-0.005,-0.013,-0.004,-0.025,-0.02,-0.004,-0.004,-0.025
1.45,-0.015,-0.025,-0.01,0.02,-0.002,-0.017,0.0,-0.025,-0.02,-0.005,-0.005,-0.025
1.452,-0.019,-0.029,-0.01,0.024,-0.005,-0.019,0.0,-0.025,-0.02,-0.013,-0.013,-0.025
1.454,-0.021,-0.034,-0.013,0.028,-0.004,-0.023,0.0,-0.025,-0.023,-0.018,-0.018,-0.028
1.456,-0.019,-0.035,-0.016,0.027,-0.001,-0.025,0.0,-0.025,-0.026,-0.024,-0.024,-0.031
1.458,-0.031,-0.045,-0.015,0.038,-0.008,-0.029,0.001,-0.025,-0.024,-0.031,-0.031,-0.03
1.46,-0.055,-0.07,-0.015,0.063,-0.02,-0.042,0.005,-0.025,-0.025,-0.035,-0.035,-0.03
1.462,-0.052,-0.071,-0.019,0.062,-0.016,-0.045,0.005,-0.025,-0.041,-0.043,-0.043,-0.038
1.464,-0.049,-0.069,-0.021,0.059,-0.014,-0.045,0.005,-0.025,-0.05,-0.048,-0.048,-0.043
1.466,-0.051,-0.07,-0.019,0.06,-0.016,-0.045,0.005,-0.025,-0.05,-0.052,-0.052,-0.047
1.468,-0.049,-0.07,-0.021,0.06,-0.014,-0.045,0.005,-0.025,-0.05,-0.055,-0.055,-0.05
1.47,-0.045,-0.07,-0.025,0.058,-0.01,-0.047,0.005,-0.025,-0.05,-0.055,-0.055,-0.05
1.472,-0.045,-0.07,-0.025,0.058,-0.01,-0.047,0.009,-0.025,-0.05,-0.055,-0.055,-0.05
1.474,-0.045,-0.071,-0.025,0.058,-0.01,-0.047,0.01,-0.025,-0.05,-0.055,-0.055,-0.05
1.476,-0.045,-0.068,-0.023,0.057,-0.011,-0.045,0.01,-0.025,-0.05,-0.055,-0.055,-0.05
1.478,-0.054,-0.074,-0.02,0.064,-0.017,-0.047,0.01,-0.025,-0.05,-0.055,-0.056,-0.051
1.48,-0.07,-0.09,-0.02,0.08,-0.025,-0.055,0.01,-0.025,-0.05,-0.055,-0.06,-0.055
1.482,-0.067,-0.087,-0.02,0.077,-0.023,-0.053,0.014,-0.025,-0.05,-0.055,-0.06,-0.055
1.484,-0.064,-0.084,-0.02,0.074,-0.022,-0.052,0.015,-0.025,-0.05,-0.055,-0.06,-0.055
1.486,-0.065,-0.085,-0.02,0.075,-0.022,-0.052,0.015,-0.025,-0.05,-0.055,-0.06,-0.055
1.488,-0.065,-0.085,-0.02,0.075,-0.022,-0.052,0.015,-0.025,-0.05,-0.055,-0.06,-0.055
1.49,-0.065,-0.085,-0.02,0.075,-0.022,-0.052,0.015,-0.025,-0.05,-0.055,-0.06,-0.055
1.492,-0.065,-0.085,-0.02,0.075,-0.022,-0.052,0.015,-0.025,-0.054,-0.055,-0.06,-0.051
1.494,-0.065,-0.085,-0.02,0.075,-0.022,-0.052,0.012,-0.025,-0.055,-0.058,-0.06,-0.05
1.496,-0.065,-0.085,-0.02,0.075,-0.022,-0.052,0.009,-0.025,-0.055,-0.061,-0.06,-0.05
1.498,-0.065,-0.085,-0.02,0.075,-0.022,-0.052,0.01,-0.025,-0.055,-0.06,-0.06,-0.05
1.5,-0.065,-0.085,-0.02,0.075,-0.022,-0.052,0.01,-0.025,-0.055,-0.06,-0.06,-0.05
1.502,-0.065,-0.085,-0.02,0.075,-0.022,-0.052,0.01,-0.025,-0.055,-0.06,-0.06,-0.05
1.504,-0.065,-0.085,-0.02,0.075,-0.022,-0.052,0.01,-0.025,-0.055,-0.06,-0.06,-0.05
1.506,-0.065,-0.085,-0.02,0.075,-0.022,-0.052,0.01,-0.025,-0.055,-0.06,-0.06,-0.05
1.508,-0.065,-0.085,-0.02,0.075,-0.022,-0.052,0.009,-0.025,-0.055,-0.06,-0.06,-0.05
1.51,-0.065,-0.085,-0.02,0.075,-0.022,-0.052,0.005,-0.025,-0.055,-0.06,-0.06,-0.05
1.512,-0.065,-0.085,-0.02,0.075,-0.022,-0.052,0.005,-0.025,-0.055,-0.06,-0.06,-0.05
1.514,-0.065,-0.085,-0.02,0.075,-0.022,-0.052,0.005,-0.025,-0.055,-0.06,-0.06,-0.05
1.516,-0.065,-0.085,-0.02,0.075,-0.022,-0.052,0.005,-0.025,-0.055,-0.06,-0.06,-0.05
1.518,-0.065,-0.085,-0.02,0.075,-0.022,-0.052,0.005,-0.025,-0.054,-0.06,-0.06,-0.05
1.52,-0.065,-0.085,-0.02,0.075,-0.022,-0.052,0.005,-0.025,-0.05,-0.06,-0.06,-0.05
1.522,-0.065,-0.085,-0.02,0.075,-0.022,-0.052,0.005,-0.025,-0.05,-0.064,-0.06,-0.05
1.524,-0.065,-0.085,-0.02,0.075,-0.022,-0.052,0.002,-0.025,-0.051,-0.065,-0.06,-0.05
1.526,-0.065,-0.085,-0.02,0.075,-0.022,-0.052,-0.001,-0.025,-0.048,-0.065,-0.06,-0.05
1.528,-0.065,-0.085,-0.02,0.075,-0.022,-0.052,0.0,-0.025,-0.044,-0.065,-0.06,-0.05
1.53,-0.065,-0.085,-0.02,0.075,-0.022,-0.052,0.0,-0.025,-0.045,-0.065,-0.06,-0.05
1.532,-0.065,-0.085,-0.02,0.075,-0.022,-0.052,0.0,-0.026,-0.046,-0.065,-0.06,-0.05
1.534,-0.066,-0.084,-0.018,0.075,-0.024,-0.05,0.001,-0.018,-0.041,-0.065,-0.059,-0.049
1.536,-0.062,-0.09,-0.028,0.076,-0.017,-0.058,-0.002,-0.017,-0.043,-0.065,-0.063,-0.052
1.538,-0.062,-0.103,-0.041,0.083,-0.01,-0.072,0.005,0.0,-0.034,-0.065,-0.073,-0.064
1.54,-0.07,-0.115,-0.045,0.093,-0.012,-0.08,0.035,0.065,0.005,-0.065,-0.09,-0.085
1.542,-0.054,-0.129,-0.074,0.092,0.011,-0.102,0.063,0.124,0.035,-0.064,-0.115,-0.109
1.544,-0.043,-0.16,-0.117,0.102,0.037,-0.138,0.096,0.203,0.089,-0.068,-0.127,-0.134
1.546,-0.036,-0.167,-0.131,0.101,0.047,-0.149,0.151,0.313,0.179,-0.055,-0.136,-0.155
1.548,-0.029,-0.146,-0.117,0.087,0.044,-0.131,0.206,0.436,0.288,-0.03,-0.165,-0.176
1.55,-0.025,-0.135,-0.11,0.08,0.043,-0.122,0.245,0.575,0.41,-0.005,-0.195,-0.195
1.552,-0.02,-0.122,-0.102,0.071,0.041,-0.112,0.312,0.769,0.566,0.054,-0.171,-0.187
1.554,-0.023,-0.117,-0.094,0.07,0.036,-0.105,0.371,0.953,0.706,0.114,-0.156,-0.184
1.556,0.009,-0.075,-0.084,0.033,0.047,-0.079,0.369,0.995,0.75,0.181,-0.102,-0.149
1.558,0.094,0.022,-0.072,-0.058,0.084,-0.025,0.296,0.849,0.68,0.268,0.027,-0.059
1.56,0.2,0.14,-0.06,-0.17,0.13,0.04,0.165,0.575,0.555,0.375,0.2,0.065
1.562,0.302,0.254,-0.047,-0.277,0.175,0.103,-0.01,0.248,0.418,0.505,0.409,0.214
1.564,0.39,0.351,-0.039,-0.37,0.214,0.156,-0.179,-0.034,0.295,0.647,0.636,0.381
1.566,0.47,0.456,-0.013,-0.463,0.242,0.222,-0.309,-0.236,0.237,0.795,0.862,0.546
1.568,0.55,0.582,0.032,-0.566,0.259,0.307,-0.4,-0.339,0.235,0.957,1.069,0.695
1.57,0.625,0.695,0.07,-0.66,0.277,0.382,-0.465,-0.355,0.215,1.125,1.265,0.835
1.572,0.675,0.777,0.103,-0.726,0.285,0.44,-0.516,-0.408,0.16,1.279,1.484,0.996
1.574,0.712,0.92,0.208,-0.816,0.252,0.563,-0.612,-0.595,0.132,1.447,1.701,1.175
1.576,0.697,1.062,0.365,-0.88,0.166,0.713,-0.705,-0.875,-0.005,1.554,1.855,1.335
1.578,0.597,1.112,0.515,-0.855,0.041,0.814,-0.747,-1.148,-0.264,1.568,1.938,1.448
1.58,0.465,1.095,0.63,-0.78,-0.083,0.862,-0.76,-1.37,-0.5,1.555,1.99,1.52
1.582,0.414,1.094,0.679,-0.754,-0.133,0.887,-0.775,-1.555,-0.718,1.553,2.008,1.573
1.584,0.4,1.016,0.617,-0.709,-0.109,0.816,-0.798,-1.661,-0.847,1.487,2.011,1.543
1.586,0.392,0.88,0.488,-0.636,-0.048,0.683,-0.819,-1.713,-0.937,1.331,1.936,1.499
1.588,0.381,0.723,0.342,-0.552,0.019,0.532,-0.843,-1.756,-1.06,1.056,1.732,1.432
1.59,0.345,0.54,0.195,-0.443,0.075,0.367,-0.87,-1.78,-1.23,0.605,1.4,1.245
1.592,0.274,0.344,0.07,-0.309,0.101,0.207,-0.858,-1.752,-1.422,0.004,0.946,0.997
1.594,0.206,0.156,-0.05,-0.181,0.128,0.052,-0.852,-1.735,-1.557,-0.557,0.487,0.734
1.596,0.159,0.026,-0.133,-0.092,0.146,-0.053,-0.824,-1.666,-1.55,-0.823,0.209,0.545
1.598,0.11,-0.046,-0.156,-0.032,0.133,-0.101,-0.747,-1.495,-1.415,-0.813,0.094,0.426
1.6,0.055,-0.095,-0.15,0.02,0.103,-0.122,-0.64,-1.275,-1.235,-0.74,0.0,0.31
1.602,0.043,-0.107,-0.15,0.032,0.097,-0.128,-0.528,-1.059,-1.039,-0.637,-0.054,0.218
1.604,0.017,-0.13,-0.147,0.056,0.082,-0.138,-0.419,-0.843,-0.846,-0.535,-0.101,0.124
1.606,-0.012,-0.157,-0.145,0.085,0.067,-0.151,-0.327,-0.661,-0.687,-0.45,-0.144,0.059
1.608,-0.021,-0.165,-0.144,0.094,0.062,-0.155,-0.26,-0.523,-0.566,-0.385,-0.161,0.019
1.61,-0.02,-0.16,-0.14,0.09,0.06,-0.15,-0.205,-0.405,-0.455,-0.33,-0.15,-0.025
1.612,-0.015,-0.156,-0.141,0.085,0.064,-0.148,-0.148,-0.305,-0.359,-0.272,-0.142,-0.039
1.614,-0.022,-0.152,-0.129,0.087,0.054,-0.14,-0.103,-0.238,-0.296,-0.232,-0.134,-0.043
1.616,-0.038,-0.15,-0.112,0.094,0.037,-0.131,-0.066,-0.179,-0.241,-0.196,-0.126,-0.046
1.618,-0.054,-0.149,-0.096,0.101,0.021,-0.123,-0.032,-0.123,-0.19,-0.165,-0.118,-0.053
1.62,-0.065,-0.145,-0.08,0.105,0.008,-0.112,-0.005,-0.08,-0.16,-0.155,-0.11,-0.065
1.622,-0.073,-0.141,-0.068,0.107,-0.003,-0.104,0.024,-0.037,-0.126,-0.148,-0.101,-0.07
1.624,-0.082,-0.14,-0.058,0.111,-0.012,-0.099,0.041,-0.024,-0.112,-0.136,-0.102,-0.07
1.626,-0.086,-0.139,-0.053,0.113,-0.017,-0.095,0.048,-0.024,-0.107,-0.126,-0.106,-0.072
1.628,-0.084,-0.134,-0.049,0.109,-0.017,-0.091,0.05,-0.019,-0.098,-0.117,-0.105,-0.075
1.63,-0.085,-0.13,-0.045,0.108,-0.02,-0.087,0.05,-0.015,-0.09,-0.105,-0.105,-0.075
1.632,-0.093,-0.13,-0.037,0.112,-0.028,-0.083,0.05,-0.011,-0.082,-0.097,-0.104,-0.079
1.634,-0.095,-0.127,-0.032,0.111,-0.031,-0.079,0.05,-0.007,-0.074,-0.091,-0.115,-0.08
1.636,-0.097,-0.124,-0.028,0.111,-0.034,-0.076,0.052,-0.003,-0.066,-0.09,-0.12,-0.082
1.638,-0.101,-0.125,-0.025,0.114,-0.038,-0.075,0.056,0.001,-0.058,-0.09,-0.114,-0.085
1.64,-0.1,-0.125,-0.025,0.113,-0.037,-0.075,0.06,0.005,-0.05,-0.09,-0.115,-0.085
1.642,-0.096,-0.121,-0.025,0.109,-0.035,-0.073,0.064,0.009,-0.046,-0.09,-0.115,-0.085
1.644,-0.094,-0.119,-0.025,0.107,-0.035,-0.072,0.068,0.013,-0.039,-0.087,-0.115,-0.085
1.646,-0.096,-0.121,-0.025,0.109,-0.035,-0.072,0.07,0.017,-0.033,-0.084,-0.115,-0.085
1.648,-0.094,-0.119,-0.025,0.107,-0.035,-0.072,0.07,0.021,-0.028,-0.085,-0.115,-0.085
1.65,-0.09,-0.115,-0.025,0.103,-0.032,-0.07,0.07,0.025,-0.02,-0.085,-0.115,-0.085
1.652,-0.09,-0.115,-0.025,0.103,-0.032,-0.07,0.07,0.029,-0.016,-0.085,-0.115,-0.085
1.654,-0.091,-0.116,-0.025,0.104,-0.032,-0.07,0.07,0.033,-0.012,-0.082,-0.115,-0.085
1.656,-0.088,-0.113,-0.025,0.101,-0.031,-0.069,0.07,0.037,-0.01,-0.079,-0.115,-0.085
1.658,-0.085,-0.11,-0.025,0.098,-0.03,-0.067,0.071,0.041,-0.009,-0.08,-0.115,-0.085
1.66,-0.085,-0.11,-0.025,0.098,-0.03,-0.067,0.075,0.045,-0.005,-0.08,-0.115,-0.085
1.662,-0.085,-0.11,-0.025,0.098,-0.03,-0.067,0.075,0.045,-0.005,-0.08,-0.115,-0.089
1.664,-0.082,-0.107,-0.025,0.095,-0.028,-0.066,0.075,0.048,-0.006,-0.081,-0.112,-0.09
1.666,-0.079,-0.104,-0.025,0.092,-0.027,-0.065,0.075,0.05,-0.003,-0.078,-0.109,-0.09
1.668,-0.08,-0.105,-0.025,0.093,-0.027,-0.065,0.075,0.051,0.0,-0.075,-0.11,-0.09
1.67,-0.08,-0.105,-0.025,0.093,-0.027,-0.065,0.075,0.055,0.0,-0.075,-0.11,-0.09
1.672,-0.076,-0.101,-0.025,0.089,-0.025,-0.063,0.075,0.055,0.0,-0.075,-0.11,-0.09
1.674,-0.074,-0.099,-0.025,0.087,-0.025,-0.062,0.078,0.058,0.003,-0.076,-0.11,-0.09
1.676,-0.076,-0.101,-0.025,0.089,-0.025,-0.062,0.081,0.06,0.006,-0.073,-0.11,-0.09
1.678,-0.074,-0.099,-0.025,0.087,-0.024,-0.062,0.08,0.061,0.005,-0.07,-0.11,-0.09
1.68,-0.07,-0.095,-0.025,0.083,-0.022,-0.06,0.08,0.065,0.005,-0.07,-0.11,-0.09
1.682,-0.07,-0.095,-0.025,0.083,-0.022,-0.06,0.08,0.069,0.009,-0.07,-0.11,-0.09
1.684,-0.07,-0.095,-0.025,0.083,-0.022,-0.06,0.08,0.073,0.011,-0.07,-0.11,-0.09
1.686,-0.07,-0.095,-0.025,0.083,-0.022,-0.06,0.08,0.075,0.009,-0.07,-0.11,-0.09
1.688,-0.069,-0.094,-0.025,0.082,-0.022,-0.06,0.081,0.075,0.011,-0.069,-0.11,-0.09
1.69,-0.065,-0.09,-0.025,0.078,-0.02,-0.057,0.085,0.075,0.015,-0.065,-0.11,-0.09
1.692,-0.065,-0.09,-0.025,0.078,-0.02,-0.057,0.085,0.075,0.015,-0.065,-0.11,-0.09
1.694,-0.065,-0.09,-0.025,0.078,-0.02,-0.057,0.085,0.078,0.018,-0.065,-0.11,-0.09
1.696,-0.065,-0.09,-0.025,0.078,-0.02,-0.057,0.085,0.081,0.021,-0.065,-0.11,-0.09
1.698,-0.065,-0.09,-0.025,0.078,-0.02,-0.057,0.085,0.08,0.02,-0.065,-0.11,-0.09
1.7,-0.065,-0.09,-0.025,0.078,-0.02,-0.057,0.085,0.08,0.02,-0.065,-0.11,-0.09
1.702,-0.065,-0.09,-0.025,0.078,-0.02,-0.057,0.085,0.08,0.024,-0.065,-0.11,-0.09
1.704,-0.065,-0.09,-0.025,0.078,-0.02,-0.057,0.082,0.079,0.025,-0.066,-0.11,-0.09
1.706,-0.065,-0.09,-0.025,0.078,-0.02,-0.057,0.079,0.082,0.027,-0.063,-0.11,-0.09
1.708,-0.065,-0.09,-0.025,0.078,-0.02,-0.057,0.08,0.085,0.031,-0.06,-0.11,-0.09
1.71,-0.065,-0.09,-0.025,0.078,-0.02,-0.057,0.08,0.085,0.03,-0.06,-0.11,-0.09
1.712,-0.065,-0.09,-0.025,0.078,-0.02,-0.057,0.08,0.085,0.03,-0.06,-0.11,-0.09
1.714,-0.066,-0.091,-0.025,0.079,-0.02,-0.057,0.08,0.085,0.033,-0.06,-0.11,-0.089
1.716,-0.063,-0.088,-0.025,0.076,-0.019,-0.056,0.08,0.085,0.036,-0.06,-0.11,-0.092
1.718,-0.06,-0.085,-0.025,0.073,-0.017,-0.055,0.08,0.086,0.035,-0.06,-0.11,-0.095
1.72,-0.06,-0.085,-0.025,0.073,-0.017,-0.055,0.08,0.09,0.035,-0.06,-0.11,-0.095
1.722,-0.06,-0.085,-0.025,0.073,-0.017,-0.055,0.08,0.09,0.039,-0.06,-0.11,-0.095
1.724,-0.06,-0.085,-0.025,0.073,-0.017,-0.055,0.08,0.089,0.041,-0.057,-0.11,-0.095
1.726,-0.06,-0.085,-0.025,0.073,-0.017,-0.055,0.08,0.092,0.039,-0.054,-0.11,-0.095
1.728,-0.06,-0.085,-0.025,0.073,-0.017,-0.055,0.08,0.095,0.041,-0.055,-0.11,-0.095
1.73,-0.06,-0.085,-0.025,0.073,-0.017,-0.055,0.08,0.095,0.045,-0.055,-0.11,-0.095
1.732,-0.062,-0.085,-0.023,0.074,-0.019,-0.054,0.08,0.094,0.045,-0.055,-0.11,-0.095
1.734,-0.047,-0.085,-0.038,0.067,-0.004,-0.061,0.08,0.098,0.045,-0.055,-0.11,-0.095
1.736,-0.04,-0.085,-0.045,0.063,0.003,-0.065,0.08,0.1,0.045,-0.055,-0.11,-0.095
1.738,-0.046,-0.085,-0.039,0.065,-0.003,-0.061,0.08,0.101,0.046,-0.055,-0.11,-0.095
1.74,-0.045,-0.085,-0.04,0.065,-0.002,-0.062,0.08,0.105,0.05,-0.055,-0.11,-0.095
1.742,-0.045,-0.085,-0.04,0.065,-0.002,-0.062,0.08,0.105,0.05,-0.055,-0.11,-0.095
1.744,-0.042,-0.082,-0.04,0.062,-0.001,-0.061,0.08,0.108,0.053,-0.052,-0.111,-0.095
1.746,-0.039,-0.079,-0.04,0.059,0.001,-0.06,0.08,0.11,0.055,-0.049,-0.108,-0.095
1.748,-0.041,-0.08,-0.039,0.061,-0.001,-0.06,0.08,0.111,0.056,-0.05,-0.105,-0.095
1.75,-0.045,-0.08,-0.035,0.063,-0.005,-0.057,0.08,0.115,0.06,-0.05,-0.105,-0.095
1.752,-0.046,-0.08,-0.035,0.064,-0.005,-0.057,0.08,0.115,0.06,-0.046,-0.105,-0.095
1.754,-0.042,-0.077,-0.035,0.06,-0.003,-0.056,0.08,0.114,0.063,-0.045,-0.105,-0.095
1.756,-0.039,-0.074,-0.035,0.058,-0.002,-0.055,0.08,0.117,0.066,-0.045,-0.105,-0.095
1.758,-0.04,-0.075,-0.035,0.058,-0.002,-0.055,0.081,0.121,0.065,-0.045,-0.105,-0.095
1.76,-0.04,-0.075,-0.035,0.058,-0.002,-0.055,0.085,0.12,0.065,-0.045,-0.105,-0.095
1.762,-0.04,-0.075,-0.035,0.058,-0.002,-0.055,0.085,0.119,0.064,-0.041,-0.105,-0.095
1.764,-0.04,-0.072,-0.032,0.056,-0.004,-0.052,0.085,0.126,0.071,-0.04,-0.102,-0.095
1.766,-0.04,-0.069,-0.029,0.055,-0.005,-0.049,0.085,0.133,0.078,-0.04,-0.099,-0.095
1.768,-0.04,-0.07,-0.03,0.055,-0.005,-0.05,0.085,0.136,0.081,-0.04,-0.1,-0.095
1.77,-0.04,-0.07,-0.03,0.055,-0.005,-0.05,0.085,0.14,0.085,-0.04,-0.1,-0.095
1.772,-0.04,-0.07,-0.03,0.055,-0.005,-0.05,0.089,0.14,0.085,-0.036,-0.1,-0.091
1.774,-0.04,-0.071,-0.031,0.055,-0.005,-0.051,0.09,0.144,0.086,-0.034,-0.1,-0.09
1.776,-0.04,-0.068,-0.028,0.054,-0.006,-0.048,0.09,0.144,0.083,-0.036,-0.1,-0.088
1.778,-0.04,-0.065,-0.025,0.053,-0.007,-0.045,0.09,0.148,0.088,-0.034,-0.1,-0.084
1.78,-0.04,-0.065,-0.025,0.053,-0.007,-0.045,0.09,0.165,0.105,-0.03,-0.1,-0.085
1.782,-0.04,-0.065,-0.025,0.053,-0.007,-0.045,0.09,0.17,0.102,-0.03,-0.096,-0.086
1.784,-0.04,-0.066,-0.025,0.054,-0.007,-0.045,0.093,0.169,0.099,-0.03,-0.095,-0.082
1.786,-0.038,-0.063,-0.025,0.051,-0.006,-0.044,0.096,0.172,0.101,-0.03,-0.095,-0.08
1.788,-0.034,-0.06,-0.025,0.047,-0.005,-0.042,0.095,0.175,0.099,-0.029,-0.095,-0.079
1.79,-0.035,-0.06,-0.025,0.048,-0.005,-0.042,0.095,0.175,0.1,-0.025,-0.095,-0.075
1.792,-0.039,-0.06,-0.021,0.05,-0.009,-0.04,0.099,0.179,0.12,-0.025,-0.095,-0.075
1.794,-0.04,-0.06,-0.019,0.05,-0.01,-0.04,0.101,0.18,0.13,-0.025,-0.095,-0.076
1.796,-0.04,-0.06,-0.021,0.05,-0.01,-0.04,0.099,0.181,0.129,-0.025,-0.095,-0.073
1.798,-0.04,-0.059,-0.019,0.05,-0.01,-0.039,0.101,0.186,0.131,-0.024,-0.095,-0.07
1.8,-0.04,-0.055,-0.015,0.048,-0.012,-0.035,0.105,0.19,0.135,-0.02,-0.095,-0.07
1.802,-0.036,-0.051,-0.015,0.044,-0.01,-0.032,0.105,0.194,0.135,-0.016,-0.091,-0.066
1.804,-0.034,-0.05,-0.016,0.043,-0.01,-0.032,0.105,0.195,0.138,-0.011,-0.087,-0.064
1.806,-0.036,-0.049,-0.013,0.042,-0.011,-0.03,0.105,0.196,0.142,-0.01,-0.083,-0.066
1.808,-0.034,-0.044,-0.01,0.039,-0.012,-0.026,0.104,0.201,0.146,-0.009,-0.08,-0.064
1.81,-0.03,-0.04,-0.01,0.035,-0.01,-0.025,0.1,0.205,0.15,-0.005,-0.08,-0.06
1.812,-0.03,-0.04,-0.01,0.035,-0.01,-0.025,0.1,0.209,0.154,-0.001,-0.076,-0.06
1.814,-0.03,-0.037,-0.007,0.034,-0.011,-0.022,0.097,0.21,0.161,0.0,-0.071,-0.061
1.816,-0.029,-0.033,-0.004,0.031,-0.012,-0.018,0.094,0.211,0.167,0.001,-0.07,-0.058
1.818,-0.024,-0.029,-0.005,0.027,-0.009,-0.017,0.095,0.216,0.171,0.006,-0.069,-0.054
1.82,-0.02,-0.025,-0.005,0.023,-0.007,-0.015,0.095,0.22,0.175,0.01,-0.065,-0.05
1.822,-0.02,-0.021,-0.001,0.021,-0.01,-0.011,0.091,0.219,0.174,0.009,-0.061,-0.046
1.824,-0.017,-0.016,0.001,0.017,-0.008,-0.008,0.09,0.226,0.181,0.016,-0.06,-0.045
1.826,-0.015,-0.015,-0.001,0.015,-0.007,-0.007,0.088,0.232,0.188,0.023,-0.059,-0.044
1.828,-0.014,-0.014,0.001,0.014,-0.007,-0.006,0.084,0.237,0.191,0.026,-0.054,-0.039
1.83,-0.01,-0.005,0.005,0.007,-0.007,0.0,0.085,0.245,0.195,0.03,-0.05,-0.035
1.832,-0.006,-0.001,0.005,0.003,-0.006,0.002,0.086,0.249,0.199,0.034,-0.046,-0.035
1.834,-0.002,0.003,0.004,-0.001,-0.003,0.003,0.082,0.256,0.206,0.038,-0.042,-0.033
1.836,0.0,0.007,0.007,-0.004,-0.003,0.007,0.08,0.263,0.212,0.042,-0.038,-0.027
1.838,0.0,0.011,0.011,-0.005,-0.006,0.011,0.079,0.266,0.216,0.046,-0.034,-0.025
1.84,0.0,0.015,0.015,-0.008,-0.008,0.015,0.075,0.27,0.22,0.05,-0.03,-0.025
1.842,0.0,0.019,0.019,-0.01,-0.01,0.019,0.075,0.274,0.219,0.049,-0.026,-0.021
1.844,-0.002,0.021,0.023,-0.01,-0.012,0.022,0.076,0.281,0.226,0.056,-0.022,-0.017
1.846,-0.01,0.017,0.027,-0.004,-0.019,0.022,0.073,0.287,0.232,0.063,-0.018,-0.013
1.848,-0.005,0.025,0.03,-0.01,-0.018,0.028,0.07,0.292,0.237,0.066,-0.014,-0.009
1.85,0.02,0.05,0.03,-0.035,-0.005,0.04,0.07,0.3,0.245,0.07,-0.01,-0.005
1.852,0.017,0.051,0.034,-0.035,-0.008,0.042,0.071,0.304,0.249,0.069,-0.006,0.0
1.854,0.011,0.049,0.038,-0.03,-0.013,0.043,0.067,0.308,0.253,0.076,-0.003,-0.001
1.856,0.008,0.051,0.043,-0.03,-0.017,0.047,0.065,0.31,0.256,0.081,0.004,0.003
1.858,0.004,0.049,0.045,-0.027,-0.02,0.046,0.064,0.311,0.263,0.088,0.011,0.011
1.86,0.005,0.05,0.045,-0.028,-0.02,0.047,0.06,0.315,0.28,0.105,0.015,0.015
1.862,0.013,0.07,0.057,-0.041,-0.022,0.063,0.06,0.319,0.285,0.106,0.023,0.023
1.864,0.019,0.084,0.065,-0.052,-0.024,0.074,0.057,0.326,0.285,0.104,0.028,0.028
1.866,0.02,0.084,0.064,-0.053,-0.022,0.074,0.055,0.332,0.285,0.105,0.034,0.034
1.868,0.029,0.096,0.067,-0.063,-0.019,0.081,0.054,0.336,0.285,0.104,0.041,0.041
1.87,0.045,0.125,0.08,-0.085,-0.018,0.102,0.05,0.34,0.285,0.105,0.045,0.045
1.872,0.046,0.126,0.081,-0.086,-0.018,0.103,0.05,0.34,0.293,0.117,0.053,0.053
1.874,0.044,0.124,0.08,-0.084,-0.018,0.101,0.047,0.34,0.298,0.124,0.061,0.061
1.876,0.045,0.126,0.081,-0.086,-0.018,0.103,0.045,0.34,0.302,0.127,0.071,0.069
1.878,0.044,0.124,0.079,-0.084,-0.018,0.101,0.044,0.339,0.305,0.131,0.083,0.077
1.88,0.045,0.125,0.08,-0.085,-0.018,0.102,0.04,0.335,0.305,0.135,0.09,0.085
1.882,0.058,0.154,0.096,-0.106,-0.019,0.125,0.036,0.335,0.305,0.139,0.094,0.089
1.884,0.061,0.166,0.105,-0.114,-0.022,0.135,0.032,0.332,0.308,0.143,0.097,0.093
1.886,0.061,0.166,0.105,-0.114,-0.022,0.135,0.028,0.33,0.31,0.145,0.106,0.096
1.888,0.066,0.171,0.105,-0.119,-0.019,0.138,0.025,0.329,0.31,0.145,0.117,0.103
1.89,0.07,0.175,0.105,-0.123,-0.018,0.14,0.025,0.325,0.31,0.15,0.125,0.115
1.892,0.07,0.174,0.105,-0.123,-0.018,0.139,0.021,0.325,0.306,0.162,0.134,0.12
1.894,0.075,0.182,0.108,-0.128,-0.017,0.145,0.017,0.322,0.301,0.172,0.137,0.122
1.896,0.087,0.199,0.112,-0.143,-0.013,0.155,0.013,0.32,0.3,0.177,0.148,0.131
1.898,0.096,0.212,0.116,-0.155,-0.01,0.163,0.009,0.319,0.299,0.181,0.162,0.142
1.9,0.095,0.215,0.12,-0.155,-0.013,0.167,0.005,0.315,0.295,0.185,0.165,0.145
1.902,0.093,0.218,0.125,-0.156,-0.016,0.171,0.005,0.315,0.295,0.185,0.168,0.145
1.904,0.104,0.227,0.123,-0.166,-0.01,0.174,0.002,0.312,0.292,0.184,0.176,0.148
1.906,0.098,0.231,0.133,-0.165,-0.018,0.182,-0.002,0.31,0.29,0.187,0.183,0.15
1.908,0.093,0.239,0.146,-0.166,-0.027,0.192,-0.006,0.309,0.29,0.19,0.186,0.151
1.91,0.115,0.255,0.14,-0.185,-0.013,0.197,-0.01,0.305,0.285,0.19,0.19,0.16
1.912,0.112,0.252,0.14,-0.181,-0.014,0.196,-0.014,0.306,0.28,0.19,0.194,0.164
1.914,0.112,0.25,0.137,-0.181,-0.012,0.193,-0.015,0.299,0.28,0.193,0.198,0.171
1.916,0.114,0.248,0.134,-0.182,-0.01,0.191,-0.016,0.292,0.278,0.196,0.202,0.178
1.918,0.109,0.244,0.135,-0.177,-0.014,0.19,-0.021,0.289,0.275,0.195,0.207,0.179
1.92,0.11,0.245,0.135,-0.178,-0.013,0.19,-0.025,0.285,0.275,0.195,0.215,0.175
1.922,0.115,0.245,0.131,-0.18,-0.008,0.188,-0.029,0.277,0.271,0.199,0.219,0.175
1.924,0.112,0.242,0.13,-0.177,-0.009,0.186,-0.034,0.271,0.271,0.2,0.223,0.176
1.926,0.111,0.239,0.128,-0.175,-0.009,0.184,-0.035,0.269,0.267,0.2,0.225,0.173
1.928,0.116,0.24,0.124,-0.179,-0.004,0.182,-0.036,0.263,0.259,0.199,0.226,0.17
1.93,0.115,0.24,0.125,-0.178,-0.005,0.182,-0.04,0.25,0.255,0.195,0.23,0.17
1.932,0.11,0.236,0.125,-0.174,-0.008,0.181,-0.044,0.237,0.247,0.195,0.23,0.17
1.934,0.112,0.234,0.122,-0.173,-0.006,0.178,-0.048,0.229,0.242,0.192,0.233,0.17
1.936,0.118,0.236,0.117,-0.177,0.0,0.176,-0.05,0.22,0.236,0.189,0.236,0.168
1.938,0.119,0.234,0.115,-0.177,0.002,0.174,-0.05,0.207,0.229,0.19,0.234,0.165
1.94,0.115,0.23,0.115,-0.173,0.0,0.172,-0.05,0.195,0.225,0.19,0.23,0.165
1.942,0.118,0.229,0.111,-0.174,0.003,0.17,-0.05,0.187,0.214,0.186,0.226,0.165
1.944,0.126,0.232,0.106,-0.179,0.01,0.169,-0.047,0.176,0.2,0.185,0.222,0.162
1.946,0.118,0.224,0.106,-0.171,0.006,0.164,-0.045,0.164,0.191,0.183,0.218,0.16
1.948,0.103,0.206,0.103,-0.155,0.0,0.154,-0.044,0.152,0.182,0.179,0.214,0.16
1.95,0.1,0.19,0.09,-0.145,0.005,0.14,-0.04,0.14,0.17,0.18,0.21,0.16
1.952,0.092,0.174,0.082,-0.133,0.005,0.128,-0.04,0.128,0.158,0.181,0.211,0.161
1.954,0.085,0.16,0.075,-0.123,0.005,0.117,-0.037,0.116,0.149,0.175,0.202,0.155
1.956,0.087,0.151,0.064,-0.119,0.011,0.107,-0.035,0.106,0.14,0.165,0.19,0.146
1.958,0.09,0.143,0.053,-0.117,0.018,0.098,-0.034,0.098,0.127,0.159,0.183,0.138
1.96,0.09,0.135,0.045,-0.113,0.022,0.09,-0.03,0.09,0.115,0.155,0.175,0.13
1.962,0.094,0.131,0.037,-0.113,0.028,0.084,-0.03,0.082,0.107,0.147,0.167,0.122
1.964,0.096,0.125,0.029,-0.111,0.034,0.076,-0.027,0.074,0.097,0.138,0.159,0.114
1.966,0.093,0.115,0.022,-0.104,0.035,0.069,-0.025,0.066,0.084,0.133,0.151,0.106
1.968,0.09,0.109,0.019,-0.099,0.035,0.064,-0.024,0.058,0.073,0.128,0.142,0.098
1.97,0.09,0.105,0.015,-0.098,0.037,0.06,-0.02,0.05,0.065,0.12,0.13,0.09
1.972,0.09,0.097,0.007,-0.094,0.041,0.052,-0.02,0.042,0.057,0.112,0.122,0.082
1.974,0.087,0.089,0.002,-0.088,0.042,0.045,-0.017,0.037,0.049,0.104,0.115,0.074
1.976,0.083,0.081,-0.002,-0.082,0.042,0.039,-0.015,0.032,0.041,0.096,0.104,0.066
1.978,0.079,0.073,-0.006,-0.076,0.042,0.033,-0.014,0.023,0.033,0.088,0.093,0.058
1.98,0.075,0.065,-0.01,-0.07,0.042,0.027,-0.01,0.015,0.025,0.08,0.085,0.05
1.982,0.067,0.057,-0.01,-0.062,0.038,0.023,-0.01,0.011,0.017,0.072,0.077,0.046
1.984,0.058,0.049,-0.009,-0.053,0.033,0.019,-0.011,0.007,0.012,0.064,0.066,0.039
1.986,0.055,0.043,-0.012,-0.048,0.033,0.015,-0.008,0.004,0.006,0.056,0.055,0.032
1.988,0.054,0.039,-0.015,-0.046,0.035,0.011,-0.005,0.005,-0.001,0.048,0.048,0.029
1.99,0.05,0.035,-0.015,-0.042,0.032,0.01,-0.005,0.005,-0.005,0.04,0.04,0.025
1.992,0.05,0.035,-0.015,-0.042,0.032,0.01,-0.005,0.001,-0.009,0.032,0.032,0.017
1.994,0.05,0.032,-0.018,-0.041,0.034,0.007,-0.002,-0.001,-0.013,0.024,0.024,0.012
1.996,0.051,0.03,-0.021,-0.04,0.036,0.005,0.001,0.001,-0.017,0.018,0.016,0.008
1.998,0.049,0.029,-0.02,-0.039,0.034,0.005,0.0,-0.001,-0.021,0.014,0.009,0.004
2.0,0.045,0.025,-0.02,-0.035,0.032,0.002,0.0,-0.005,-0.025,0.01,0.005,0.0
2.002,0.049,0.025,-0.024,-0.037,0.036,0.0,0.004,-0.005,-0.03,0.006,0.005,0.0
2.004,0.048,0.023,-0.026,-0.035,0.037,-0.001,0.006,-0.004,-0.029,0.005,0.006,0.0
2.006,0.042,0.017,-0.024,-0.029,0.033,-0.003,0.004,-0.007,-0.033,0.003,0.003,0.0
2.008,0.041,0.015,-0.026,-0.027,0.033,-0.005,0.006,-0.01,-0.042,0.0,0.0,0.0
2.01,0.045,0.015,-0.03,-0.03,0.037,-0.007,0.01,-0.01,-0.045,0.0,0.0,0.0
2.012,0.041,0.011,-0.03,-0.026,0.036,-0.01,0.01,-0.01,-0.041,-0.004,0.0,-0.004
2.014,0.039,0.01,-0.029,-0.025,0.035,-0.01,0.009,-0.013,-0.04,-0.005,0.001,-0.005
2.016,0.04,0.008,-0.032,-0.024,0.036,-0.012,0.012,-0.016,-0.04,-0.006,-0.002,-0.005
2.018,0.04,0.005,-0.035,-0.022,0.037,-0.015,0.015,-0.015,-0.04,-0.011,-0.005,-0.005
2.02,0.04,0.005,-0.035,-0.022,0.037,-0.015,0.015,-0.015,-0.04,-0.015,-0.005,-0.005
2.022,0.035,0.001,-0.035,-0.018,0.035,-0.016,0.015,-0.019,-0.04,-0.015,-0.005,-0.005
2.024,0.038,0.0,-0.038,-0.018,0.038,-0.019,0.018,-0.021,-0.04,-0.018,-0.005,-0.004
2.026,0.041,0.0,-0.041,-0.02,0.041,-0.02,0.02,-0.019,-0.04,-0.02,-0.007,-0.007
2.028,0.04,0.0,-0.04,-0.02,0.04,-0.02,0.02,-0.021,-0.04,-0.021,-0.01,-0.01
2.03,0.04,0.0,-0.04,-0.02,0.04,-0.02,0.02,-0.025,-0.04,-0.025,-0.01,-0.01
2.032,0.036,-0.004,-0.04,-0.016,0.039,-0.022,0.02,-0.025,-0.04,-0.025,-0.01,-0.01
2.034,0.032,-0.005,-0.037,-0.013,0.035,-0.021,0.023,-0.025,-0.04,-0.028,-0.013,-0.01
2.036,0.029,-0.005,-0.034,-0.012,0.032,-0.02,0.026,-0.025,-0.04,-0.031,-0.015,-0.01
2.038,0.03,-0.005,-0.035,-0.012,0.033,-0.02,0.025,-0.024,-0.039,-0.03,-0.015,-0.011
2.04,0.03,-0.005,-0.035,-0.012,0.033,-0.02,0.025,-0.02,-0.035,-0.03,-0.015,-0.015
2.042,0.026,-0.009,-0.035,-0.008,0.03,-0.022,0.025,-0.02,-0.035,-0.03,-0.015,-0.015
2.044,0.025,-0.01,-0.035,-0.007,0.03,-0.022,0.028,-0.021,-0.035,-0.03,-0.018,-0.015
2.046,0.025,-0.01,-0.035,-0.007,0.03,-0.022,0.031,-0.018,-0.035,-0.03,-0.021,-0.015
2.048,0.025,-0.01,-0.035,-0.007,0.03,-0.022,0.03,-0.015,-0.035,-0.03,-0.02,-0.015
2.05,0.025,-0.01,-0.035,-0.007,0.03,-0.022,0.03,-0.015,-0.035,-0.03,-0.02,-0.015
2.052,0.025,-0.01,-0.035,-0.007,0.03,-0.022,0.03,-0.015,-0.035,-0.03,-0.02,-0.015
2.054,0.022,-0.013,-0.035,-0.004,0.029,-0.024,0.029,-0.012,-0.035,-0.029,-0.023,-0.018
2.056,0.019,-0.016,-0.035,-0.001,0.028,-0.025,0.032,-0.009,-0.035,-0.032,-0.028,-0.021
2.058,0.02,-0.015,-0.035,-0.002,0.028,-0.025,0.035,-0.01,-0.035,-0.035,-0.03,-0.02
2.06,0.02,-0.015,-0.035,-0.002,0.028,-0.025,0.035,-0.01,-0.035,-0.035,-0.03,-0.02
2.062,0.02,-0.015,-0.035,-0.002,0.028,-0.025,0.035,-0.006,-0.035,-0.035,-0.034,-0.02
2.064,0.017,-0.018,-0.035,0.001,0.026,-0.026,0.035,-0.004,-0.036,-0.035,-0.035,-0.02
2.066,0.014,-0.021,-0.035,0.004,0.025,-0.027,0.035,-0.006,-0.033,-0.035,-0.037,-0.02
2.068,0.015,-0.02,-0.035,0.003,0.025,-0.027,0.035,-0.004,-0.03,-0.035,-0.04,-0.021
2.07,0.015,-0.02,-0.035,0.003,0.025,-0.027,0.035,0.0,-0.03,-0.035,-0.04,-0.025
2.072,0.015,-0.02,-0.035,0.003,0.025,-0.027,0.035,0.0,-0.03,-0.035,-0.044,-0.025
2.074,0.016,-0.019,-0.035,0.002,0.025,-0.027,0.035,-0.001,-0.03,-0.035,-0.046,-0.025
2.076,0.013,-0.022,-0.035,0.005,0.024,-0.028,0.035,0.002,-0.03,-0.035,-0.044,-0.025
2.078,0.01,-0.025,-0.035,0.008,0.023,-0.03,0.035,0.005,-0.029,-0.036,-0.046,-0.025
2.08,0.01,-0.025,-0.035,0.008,0.023,-0.03,0.035,0.005,-0.025,-0.04,-0.05,-0.025
2.082,0.01,-0.025,-0.035,0.008,0.023,-0.03,0.035,0.005,-0.025,-0.04,-0.05,-0.025
2.084,0.01,-0.025,-0.035,0.008,0.023,-0.03,0.035,0.008,-0.025,-0.039,-0.049,-0.028
2.086,0.011,-0.025,-0.035,0.008,0.023,-0.03,0.035,0.01,-0.025,-0.042,-0.052,-0.031
2.088,0.009,-0.025,-0.034,0.009,0.022,-0.03,0.035,0.01,-0.025,-0.045,-0.055,-0.03
2.09,0.005,-0.025,-0.03,0.01,0.018,-0.027,0.035,0.01,-0.025,-0.045,-0.055,-0.03
2.092,0.009,-0.021,-0.03,0.006,0.019,-0.025,0.035,0.01,-0.025,-0.045,-0.055,-0.03
2.094,0.011,-0.019,-0.03,0.004,0.02,-0.025,0.035,0.013,-0.022,-0.048,-0.056,-0.03
2.096,0.01,-0.021,-0.03,0.005,0.02,-0.025,0.035,0.016,-0.019,-0.051,-0.053,-0.03
2.098,0.01,-0.019,-0.029,0.005,0.02,-0.024,0.035,0.015,-0.02,-0.05,-0.05,-0.029
2.1,0.01,-0.015,-0.025,0.003,0.018,-0.02,0.035,0.015,-0.02,-0.05,-0.05,-0.025
2.102,0.01,-0.015,-0.025,0.003,0.018,-0.02,0.035,0.019,-0.02,-0.05,-0.05,-0.025
2.104,0.01,-0.015,-0.025,0.003,0.018,-0.02,0.035,0.02,-0.021,-0.047,-0.05,-0.025
2.106,0.01,-0.015,-0.025,0.003,0.018,-0.02,0.035,0.02,-0.018,-0.044,-0.05,-0.025
2.108,0.01,-0.014,-0.024,0.003,0.018,-0.019,0.035,0.02,-0.015,-0.045,-0.05,-0.025
2.11,0.01,-0.01,-0.02,0.0,0.015,-0.015,0.035,0.02,-0.015,-0.045,-0.05,-0.025
2.112,0.01,-0.01,-0.02,0.0,0.015,-0.015,0.035,0.024,-0.015,-0.045,-0.05,-0.025
2.114,0.01,-0.01,-0.02,0.0,0.015,-0.015,0.035,0.026,-0.015,-0.045,-0.05,-0.026
2.116,0.009,-0.01,-0.02,0.0,0.015,-0.015,0.035,0.024,-0.015,-0.045,-0.05,-0.023
2.118,0.011,-0.009,-0.02,-0.001,0.016,-0.015,0.035,0.026,-0.015,-0.045,-0.05,-0.02
2.12,0.015,-0.005,-0.02,-0.005,0.018,-0.012,0.035,0.03,-0.015,-0.045,-0.05,-0.02
2.122,0.011,-0.005,-0.016,-0.003,0.014,-0.01,0.035,0.03,-0.011,-0.041,-0.05,-0.02
2.124,0.009,-0.006,-0.015,-0.001,0.012,-0.01,0.038,0.03,-0.01,-0.04,-0.05,-0.02
2.126,0.012,-0.003,-0.015,-0.004,0.014,-0.009,0.041,0.03,-0.01,-0.04,-0.05,-0.02
2.128,0.016,0.0,-0.015,-0.007,0.015,-0.007,0.04,0.029,-0.01,-0.04,-0.05,-0.02
2.13,0.015,0.0,-0.015,-0.007,0.015,-0.007,0.04,0.025,-0.01,-0.04,-0.05,-0.02
2.132,0.011,0.0,-0.011,-0.005,0.011,-0.005,0.04,0.025,-0.01,-0.04,-0.05,-0.02
2.134,0.009,-0.001,-0.01,-0.004,0.009,-0.005,0.04,0.025,-0.01,-0.04,-0.05,-0.017
2.136,0.012,0.002,-0.01,-0.007,0.011,-0.004,0.04,0.025,-0.01,-0.04,-0.05,-0.014
2.138,0.015,0.005,-0.01,-0.01,0.012,-0.002,0.04,0.025,-0.01,-0.039,-0.05,-0.015
2.14,0.015,0.005,-0.01,-0.01,0.012,-0.002,0.04,0.025,-0.01,-0.035,-0.05,-0.015
2.142,0.015,0.005,-0.01,-0.01,0.012,-0.002,0.04,0.025,-0.01,-0.035,-0.05,-0.015
2.144,0.012,0.006,-0.007,-0.009,0.009,-0.001,0.04,0.025,-0.01,-0.035,-0.05,-0.015
2.146,0.008,0.003,-0.004,-0.005,0.006,-0.001,0.04,0.025,-0.01,-0.035,-0.05,-0.015
2.148,0.005,0.0,-0.005,-0.002,0.005,-0.002,0.04,0.025,-0.009,-0.035,-0.05,-0.015
2.15,0.005,0.0,-0.005,-0.002,0.005,-0.002,0.04,0.025,-0.005,-0.035,-0.05,-0.015
2.152,0.005,0.0,-0.005,-0.002,0.005,-0.002,0.04,0.025,-0.005,-0.035,-0.046,-0.015
2.154,0.005,0.0,-0.005,-0.002,0.005,-0.002,0.04,0.026,-0.005,-0.035,-0.044,-0.012
2.156,0.005,0.0,-0.005,-0.002,0.005,-0.002,0.04,0.023,-0.005,-0.035,-0.046,-0.009
2.158,0.005,0.0,-0.005,-0.002,0.005,-0.002,0.039,0.02,-0.005,-0.034,-0.044,-0.01
2.16,0.005,0.0,-0.005,-0.002,0.005,-0.002,0.035,0.02,-0.005,-0.03,-0.04,-0.01
2.162,0.005,0.0,-0.005,-0.002,0.005,-0.002,0.035,0.02,-0.005,-0.03,-0.04,-0.006
2.164,0.005,0.0,-0.005,-0.002,0.005,-0.002,0.035,0.02,-0.005,-0.031,-0.041,-0.005
2.166,0.005,0.0,-0.005,-0.002,0.005,-0.002,0.035,0.02,-0.005,-0.028,-0.038,-0.005
2.168,0.005,0.0,-0.005,-0.002,0.005,-0.002,0.035,0.02,-0.005,-0.025,-0.035,-0.005
2.17,0.005,0.0,-0.005,-0.002,0.005,-0.002,0.035,0.02,-0.005,-0.025,-0.035,-0.005
2.172,0.005,0.0,-0.005,-0.002,0.005,-0.002,0.035,0.02,-0.005,-0.025,-0.035,-0.001
2.174,0.002,-0.003,-0.005,0.001,0.004,-0.004,0.036,0.02,-0.004,-0.026,-0.032,0.001
2.176,-0.001,-0.006,-0.005,0.004,0.003,-0.005,0.033,0.02,-0.007,-0.023,-0.029,-0.001
2.178,0.0,-0.005,-0.005,0.003,0.003,-0.005,0.03,0.02,-0.01,-0.02,-0.03,0.001
2.18,0.0,-0.005,-0.005,0.003,0.003,-0.005,0.03,0.02,-0.01,-0.02,-0.03,0.005
2.182,0.0,-0.005,-0.005,0.003,0.003,-0.005,0.03,0.02,-0.01,-0.02,-0.026,0.005
2.184,0.0,-0.005,-0.005,0.003,0.003,-0.005,0.03,0.017,-0.01,-0.02,-0.024,0.005
2.186,0.0,-0.005,-0.005,0.003,0.003,-0.005,0.03,0.014,-0.01,-0.018,-0.026,0.005
2.188,0.0,-0.005,-0.005,0.003,0.003,-0.005,0.03,0.015,-0.01,-0.015,-0.024,0.006
2.19,0.0,-0.005,-0.005,0.003,0.003,-0.005,0.03,0.015,-0.01,-0.015,-0.02,0.01
2.192,0.0,-0.005,-0.005,0.003,0.003,-0.005,0.03,0.015,-0.01,-0.015,-0.02,0.01
2.194,0.0,-0.005,-0.005,0.003,0.003,-0.005,0.027,0.015,-0.01,-0.012,-0.02,0.01
2.196,0.0,-0.005,-0.005,0.003,0.003,-0.005,0.024,0.015,-0.01,-0.01,-0.02,0.01
2.198,0.001,-0.005,-0.006,0.003,0.004,-0.005,0.025,0.015,-0.01,-0.01,-0.02,0.009
2.2,0.005,-0.005,-0.01,0.0,0.008,-0.007,0.025,0.015,-0.01,-0.01,-0.02,0.005
2.202,0.009,-0.001,-0.01,-0.004,0.009,-0.005,0.025,0.011,-0.01,-0.01,-0.02,0.005
2.204,0.013,0.0,-0.013,-0.007,0.013,-0.006,0.025,0.01,-0.013,-0.007,-0.02,0.005
2.206,0.016,0.0,-0.016,-0.007,0.016,-0.007,0.025,0.01,-0.016,-0.004,-0.02,0.005
2.208,0.015,0.0,-0.015,-0.007,0.015,-0.007,0.025,0.01,-0.015,-0.005,-0.02,0.005
2.21,0.015,0.0,-0.015,-0.007,0.015,-0.007,0.025,0.01,-0.015,-0.005,-0.02,0.005
2.212,0.019,0.0,-0.019,-0.01,0.019,-0.01,0.025,0.01,-0.015,-0.005,-0.02,0.005
2.214,0.02,0.0,-0.02,-0.01,0.02,-0.01,0.022,0.01,-0.015,-0.008,-0.02,0.005
2.216,0.022,0.0,-0.022,-0.011,0.022,-0.011,0.019,0.01,-0.015,-0.011,-0.02,0.005
2.218,0.025,0.0,-0.025,-0.012,0.025,-0.012,0.02,0.009,-0.015,-0.01,-0.02,0.005
2.22,0.025,0.0,-0.025,-0.012,0.025,-0.012,0.02,0.005,-0.015,-0.01,-0.02,0.005
2.222,0.025,0.0,-0.025,-0.012,0.025,-0.012,0.02,0.005,-0.015,-0.01,-0.02,0.005
2.224,0.022,0.0,-0.022,-0.011,0.022,-0.011,0.02,0.005,-0.015,-0.01,-0.02,0.005
2.226,0.019,0.0,-0.019,-0.01,0.019,-0.01,0.02,0.005,-0.015,-0.01,-0.02,0.005
2.228,0.02,0.0,-0.02,-0.01,0.02,-0.01,0.02,0.005,-0.015,-0.011,-0.02,0.005
2.23,0.02,0.0,-0.02,-0.01,0.02,-0.01,0.02,0.005,-0.015,-0.015,-0.02,0.005
2.232,0.02,0.0,-0.02,-0.01,0.02,-0.01,0.02,0.005,-0.019,-0.015,-0.02,0.005
2.234,0.02,0.0,-0.02,-0.01,0.02,-0.01,0.02,0.005,-0.02,-0.015,-0.02,0.005
2.236,0.02,0.0,-0.02,-0.01,0.02,-0.01,0.02,0.005,-0.02,-0.015,-0.02,0.005
2.238,0.02,0.0,-0.02,-0.01,0.02,-0.01,0.02,0.006,-0.02,-0.015,-0.02,0.005
2.24,0.02,0.0,-0.02,-0.01,0.02,-0.01,0.02,0.01,-0.02,-0.015,-0.02,0.005
2.242,0.02,0.0,-0.02,-0.01,0.02,-0.01,0.02,0.01,-0.02,-0.015,-0.02,0.005
2.244,0.021,0.001,-0.02,-0.011,0.02,-0.01,0.02,0.009,-0.02,-0.018,-0.02,0.005
2.246,0.018,-0.002,-0.02,-0.008,0.019,-0.011,0.02,0.012,-0.02,-0.021,-0.02,0.005
2.248,0.015,-0.005,-0.02,-0.005,0.018,-0.012,0.02,0.015,-0.02,-0.02,-0.02,0.005
2.25,0.015,-0.005,-0.02,-0.005,0.018,-0.012,0.02,0.015,-0.02,-0.02,-0.02,0.005
2.252,0.007,-0.009,-0.016,0.002,0.011,-0.012,0.02,0.015,-0.02,-0.02,-0.024,0.005
2.254,0.005,-0.01,-0.015,0.003,0.01,-0.012,0.02,0.012,-0.02,-0.02,-0.025,0.002
2.256,0.003,-0.012,-0.015,0.005,0.009,-0.013,0.02,0.009,-0.02,-0.02,-0.025,-0.001
2.258,-0.001,-0.016,-0.015,0.009,0.008,-0.015,0.02,0.01,-0.021,-0.021,-0.025,0.0
2.26,0.0,-0.015,-0.015,0.008,0.008,-0.015,0.02,0.01,-0.025,-0.025,-0.025,0.0
2.262,0.001,-0.014,-0.015,0.007,0.008,-0.015,0.02,0.006,-0.025,-0.025,-0.025,-0.004
2.264,-0.003,-0.018,-0.015,0.011,0.006,-0.016,0.02,0.005,-0.025,-0.025,-0.025,-0.005
2.266,-0.005,-0.02,-0.015,0.013,0.005,-0.017,0.02,0.005,-0.025,-0.025,-0.025,-0.005
2.268,-0.006,-0.021,-0.015,0.014,0.005,-0.017,0.019,0.005,-0.025,-0.025,-0.026,-0.005
2.27,-0.01,-0.025,-0.015,0.018,0.003,-0.02,0.015,0.005,-0.025,-0.025,-0.03,-0.005
2.272,-0.01,-0.025,-0.015,0.018,0.003,-0.02,0.015,0.001,-0.025,-0.025,-0.03,-0.009
2.274,-0.013,-0.028,-0.015,0.021,0.001,-0.021,0.016,0.0,-0.025,-0.025,-0.03,-0.01
2.276,-0.016,-0.031,-0.015,0.024,0.0,-0.022,0.013,0.0,-0.025,-0.025,-0.03,-0.01
2.278,-0.015,-0.03,-0.015,0.023,0.0,-0.022,0.01,0.0,-0.025,-0.025,-0.03,-0.01
2.28,-0.015,-0.03,-0.015,0.023,0.0,-0.022,0.01,0.0,-0.025,-0.025,-0.03,-0.01
2.282,-0.019,-0.034,-0.015,0.027,-0.002,-0.025,0.01,-0.004,-0.025,-0.025,-0.03,-0.014
2.284,-0.02,-0.035,-0.015,0.028,-0.002,-0.025,0.011,-0.006,-0.024,-0.024,-0.03,-0.016
2.286,-0.02,-0.035,-0.015,0.028,-0.002,-0.025,0.008,-0.004,-0.027,-0.027,-0.03,-0.014
2.288,-0.02,-0.035,-0.015,0.028,-0.002,-0.025,0.005,-0.006,-0.03,-0.03,-0.03,-0.016
2.29,-0.02,-0.035,-0.015,0.028,-0.002,-0.025,0.005,-0.01,-0.03,-0.03,-0.03,-0.02
2.292,-0.02,-0.035,-0.015,0.028,-0.002,-0.025,0.005,-0.01,-0.03,-0.03,-0.03,-0.02
2.294,-0.02,-0.035,-0.015,0.028,-0.002,-0.025,0.005,-0.01,-0.03,-0.03,-0.03,-0.02
2.296,-0.02,-0.035,-0.015,0.028,-0.002,-0.025,0.003,-0.01,-0.03,-0.03,-0.03,-0.02
2.298,-0.02,-0.035,-0.015,0.028,-0.002,-0.025,0.0,-0.011,-0.03,-0.03,-0.03,-0.021
2.3,-0.02,-0.035,-0.015,0.028,-0.002,-0.025,0.0,-0.015,-0.03,-0.03,-0.03,-0.025
2.302,-0.02,-0.035,-0.015,0.028,-0.002,-0.025,0.0,-0.015,-0.03,-0.03,-0.034,-0.025
2.304,-0.02,-0.035,-0.015,0.028,-0.002,-0.025,-0.003,-0.015,-0.03,-0.03,-0.035,-0.025
2.306,-0.02,-0.035,-0.015,0.028,-0.002,-0.025,-0.005,-0.015,-0.03,-0.03,-0.037,-0.025
2.308,-0.021,-0.036,-0.015,0.029,-0.002,-0.025,-0.005,-0.016,-0.03,-0.03,-0.04,-0.026
2.31,-0.025,-0.04,-0.015,0.033,-0.005,-0.027,-0.005,-0.02,-0.03,-0.03,-0.04,-0.03
2.312,-0.025,-0.04,-0.015,0.033,-0.005,-0.027,-0.005,-0.024,-0.03,-0.03,-0.04,-0.03
2.314,-0.025,-0.04,-0.015,0.033,-0.005,-0.027,-0.008,-0.025,-0.033,-0.033,-0.04,-0.03
2.316,-0.025,-0.04,-0.015,0.033,-0.005,-0.027,-0.011,-0.026,-0.036,-0.036,-0.04,-0.03
2.318,-0.025,-0.04,-0.015,0.033,-0.005,-0.027,-0.01,-0.031,-0.035,-0.035,-0.04,-0.03
2.32,-0.025,-0.04,-0.015,0.033,-0.005,-0.027,-0.01,-0.035,-0.035,-0.035,-0.04,-0.03
2.322,-0.025,-0.04,-0.015,0.033,-0.005,-0.027,-0.01,-0.035,-0.035,-0.035,-0.04,-0.03
2.324,-0.025,-0.04,-0.015,0.033,-0.005,-0.027,-0.013,-0.038,-0.035,-0.035,-0.04,-0.03
2.326,-0.025,-0.04,-0.015,0.033,-0.005,-0.027,-0.016,-0.041,-0.035,-0.035,-0.04,-0.03
2.328,-0.025,-0.04,-0.015,0.033,-0.005,-0.027,-0.015,-0.04,-0.035,-0.035,-0.04,-0.03
2.33,-0.025,-0.04,-0.015,0.033,-0.005,-0.027,-0.015,-0.04,-0.035,-0.035,-0.04,-0.03
2.332,-0.025,-0.04,-0.015,0.033,-0.005,-0.027,-0.015,-0.04,-0.035,-0.035,-0.04,-0.03
2.334,-0.028,-0.039,-0.012,0.034,-0.008,-0.026,-0.015,-0.04,-0.035,-0.035,-0.04,-0.029
2.336,-0.032,-0.042,-0.009,0.037,-0.011,-0.026,-0.015,-0.04,-0.035,-0.035,-0.04,-0.032
2.338,-0.035,-0.045,-0.01,0.04,-0.012,-0.027,-0.015,-0.04,-0.035,-0.035,-0.04,-0.035
2.34,-0.035,-0.045,-0.01,0.04,-0.012,-0.027,-0.015,-0.04,-0.035,-0.035,-0.04,-0.035
2.342,-0.035,-0.045,-0.01,0.04,-0.012,-0.027,-0.019,-0.044,-0.039,-0.035,-0.044,-0.035
2.344,-0.035,-0.045,-0.01,0.04,-0.012,-0.027,-0.02,-0.045,-0.04,-0.035,-0.046,-0.035
2.346,-0.035,-0.045,-0.01,0.04,-0.012,-0.027,-0.02,-0.045,-0.04,-0.035,-0.044,-0.035
2.348,-0.035,-0.045,-0.01,0.04,-0.012,-0.027,-0.02,-0.045,-0.04,-0.035,-0.046,-0.035
2.35,-0.035,-0.045,-0.01,0.04,-0.012,-0.027,-0.02,-0.045,-0.04,-0.035,-0.05,-0.035
2.352,-0.035,-0.045,-0.01,0.04,-0.012,-0.027,-0.02,-0.045,-0.04,-0.035,-0.05,-0.035
2.354,-0.035,-0.045,-0.01,0.04,-0.012,-0.027,-0.02,-0.045,-0.04,-0.035,-0.05,-0.035
2.356,-0.035,-0.045,-0.01,0.04,-0.012,-0.027,-0.02,-0.045,-0.041,-0.035,-0.048,-0.035
2.358,-0.035,-0.045,-0.01,0.04,-0.012,-0.027,-0.021,-0.044,-0.039,-0.035,-0.045,-0.035
2.36,-0.035,-0.045,-0.01,0.04,-0.012,-0.027,-0.025,-0.04,-0.04,-0.035,-0.045,-0.035
2.362,-0.035,-0.045,-0.01,0.04,-0.012,-0.027,-0.025,-0.04,-0.061,-0.035,-0.045,-0.035
2.364,-0.035,-0.045,-0.01,0.04,-0.012,-0.027,-0.025,-0.04,-0.064,-0.035,-0.045,-0.032
2.366,-0.035,-0.045,-0.01,0.04,-0.012,-0.027,-0.025,-0.04,-0.059,-0.035,-0.045,-0.029
2.368,-0.035,-0.045,-0.01,0.04,-0.012,-0.027,-0.025,-0.04,-0.06,-0.034,-0.045,-0.03
2.37,-0.035,-0.045,-0.01,0.04,-0.012,-0.027,-0.025,-0.04,-0.06,-0.03,-0.045,-0.03
2.372,-0.035,-0.045,-0.01,0.04,-0.012,-0.027,-0.025,-0.04,-0.06,-0.03,-0.045,-0.03
2.374,-0.035,-0.045,-0.01,0.04,-0.012,-0.027,-0.025,-0.041,-0.057,-0.03,-0.042,-0.031
2.376,-0.035,-0.045,-0.01,0.04,-0.012,-0.027,-0.025,-0.038,-0.054,-0.03,-0.039,-0.028
2.378,-0.035,-0.045,-0.01,0.04,-0.012,-0.027,-0.024,-0.035,-0.055,-0.03,-0.04,-0.025
2.38,-0.035,-0.045,-0.01,0.04,-0.012,-0.027,-0.02,-0.035,-0.055,-0.03,-0.04,-0.025
2.382,-0.035,-0.045,-0.01,0.04,-0.012,-0.027,-0.02,-0.035,-0.055,-0.03,-0.04,-0.025
2.384,-0.035,-0.045,-0.01,0.04,-0.012,-0.027,-0.02,-0.035,-0.052,-0.03,-0.04,-0.025
2.386,-0.034,-0.045,-0.01,0.04,-0.011,-0.027,-0.02,-0.035,-0.049,-0.03,-0.04,-0.025
2.388,-0.036,-0.045,-0.009,0.041,-0.013,-0.027,-0.02,-0.035,-0.05,-0.03,-0.04,-0.025
2.39,-0.04,-0.045,-0.005,0.043,-0.017,-0.025,-0.02,-0.035,-0.05,-0.03,-0.04,-0.025
2.392,-0.032,-0.037,-0.005,0.035,-0.013,-0.021,-0.02,-0.035,-0.05,-0.03,-0.036,-0.021
2.394,-0.026,-0.031,-0.005,0.029,-0.011,-0.018,-0.02,-0.032,-0.051,-0.031,-0.035,-0.02
2.396,-0.023,-0.028,-0.005,0.026,-0.009,-0.016,-0.02,-0.029,-0.048,-0.028,-0.035,-0.02
2.398,-0.019,-0.024,-0.005,0.022,-0.007,-0.014,-0.02,-0.03,-0.045,-0.025,-0.035,-0.02
2.4,-0.015,-0.02,-0.005,0.018,-0.005,-0.012,-0.02,-0.03,-0.045,-0.025,-0.035,-0.02
2.402,-0.011,-0.016,-0.005,0.014,-0.003,-0.011,-0.02,-0.03,-0.045,-0.025,-0.035,-0.02
2.404,-0.006,-0.011,-0.005,0.009,0.0,-0.008,-0.02,-0.03,-0.046,-0.025,-0.035,-0.017
2.406,-0.006,-0.011,-0.005,0.009,0.0,-0.008,-0.02,-0.03,-0.043,-0.025,-0.035,-0.014
2.408,-0.011,-0.016,-0.005,0.014,-0.003,-0.011,-0.02,-0.03,-0.04,-0.025,-0.035,-0.015
2.41,-0.015,-0.02,-0.005,0.018,-0.005,-0.012,-0.02,-0.03,-0.04,-0.025,-0.035,-0.015
2.412,-0.019,-0.024,-0.005,0.022,-0.007,-0.014,-0.02,-0.03,-0.04,-0.025,-0.039,-0.015
2.414,-0.022,-0.028,-0.006,0.026,-0.008,-0.016,-0.02,-0.033,-0.04,-0.025,-0.04,-0.015
2.416,-0.029,-0.032,-0.003,0.031,-0.013,-0.017,-0.02,-0.036,-0.04,-0.025,-0.04,-0.015
2.418,-0.036,-0.036,0.0,0.036,-0.018,-0.017,-0.02,-0.035,-0.041,-0.025,-0.04,-0.016
2.42,-0.035,-0.035,0.0,0.035,-0.017,-0.017,-0.02,-0.035,-0.045,-0.025,-0.04,-0.02
2.422,-0.031,-0.031,0.0,0.031,-0.015,-0.015,-0.02,-0.035,-0.045,-0.025,-0.04,-0.02
2.424,-0.03,-0.03,0.0,0.03,-0.015,-0.015,-0.02,-0.035,-0.045,-0.028,-0.04,-0.023
2.426,-0.03,-0.03,0.0,0.03,-0.015,-0.015,-0.02,-0.035,-0.045,-0.031,-0.04,-0.025
2.428,-0.03,-0.03,0.0,0.03,-0.015,-0.015,-0.02,-0.035,-0.045,-0.03,-0.04,-0.026
2.43,-0.03,-0.03,0.0,0.03,-0.015,-0.015,-0.02,-0.035,-0.045,-0.03,-0.04,-0.03
2.432,-0.03,-0.03,0.0,0.03,-0.015,-0.015,-0.02,-0.035,-0.049,-0.03,-0.04,-0.03
2.434,-0.03,-0.03,0.0,0.03,-0.015,-0.015,-0.02,-0.035,-0.05,-0.03,-0.04,-0.03
2.436,-0.03,-0.03,0.0,0.03,-0.015,-0.015,-0.02,-0.035,-0.05,-0.03,-0.04,-0.03
2.438,-0.03,-0.03,0.0,0.03,-0.015,-0.015,-0.02,-0.035,-0.05,-0.03,-0.04,-0.03
2.44,-0.03,-0.03,0.0,0.03,-0.015,-0.015,-0.02,-0.035,-0.05,-0.03,-0.04,-0.03
2.442,-0.03,-0.03,0.0,0.03,-0.015,-0.015,-0.02,-0.035,-0.05,-0.03,-0.04,-0.03
2.444,-0.033,-0.03,0.003,0.031,-0.018,-0.013,-0.02,-0.035,-0.047,-0.03,-0.04,-0.029
2.446,-0.036,-0.03,0.006,0.032,-0.021,-0.012,-0.02,-0.035,-0.044,-0.03,-0.04,-0.032
2.448,-0.035,-0.03,0.005,0.032,-0.02,-0.012,-0.02,-0.035,-0.045,-0.03,-0.04,-0.035
2.45,-0.035,-0.03,0.005,0.032,-0.02,-0.012,-0.02,-0.035,-0.045,-0.03,-0.04,-0.035
2.452,-0.039,-0.03,0.009,0.035,-0.024,-0.01,-0.02,-0.035,-0.045,-0.034,-0.04,-0.035
2.454,-0.04,-0.03,0.01,0.035,-0.025,-0.01,-0.02,-0.035,-0.045,-0.035,-0.039,-0.035
2.456,-0.04,-0.03,0.01,0.035,-0.025,-0.01,-0.02,-0.035,-0.045,-0.035,-0.042,-0.035
2.458,-0.039,-0.03,0.009,0.035,-0.024,-0.01,-0.02,-0.035,-0.045,-0.035,-0.045,-0.035
2.46,-0.035,-0.03,0.005,0.032,-0.02,-0.012,-0.02,-0.035,-0.045,-0.035,-0.045,-0.035
2.462,-0.035,-0.03,0.005,0.032,-0.02,-0.012,-0.02,-0.035,-0.045,-0.035,-0.045,-0.035
2.464,-0.035,-0.03,0.005,0.032,-0.02,-0.012,-0.02,-0.035,-0.045,-0.035,-0.045,-0.032
2.466,-0.035,-0.03,0.005,0.032,-0.02,-0.012,-0.02,-0.035,-0.045,-0.035,-0.045,-0.029
2.468,-0.035,-0.03,0.005,0.032,-0.02,-0.012,-0.02,-0.036,-0.045,-0.035,-0.045,-0.03
2.47,-0.035,-0.03,0.005,0.032,-0.02,-0.012,-0.02,-0.04,-0.045,-0.035,-0.045,-0.03
2.472,-0.031,-0.03,0.001,0.03,-0.016,-0.015,-0.02,-0.04,-0.045,-0.035,-0.045,-0.03
2.474,-0.03,-0.03,0.0,0.03,-0.015,-0.015,-0.02,-0.04,-0.045,-0.035,-0.045,-0.03
2.476,-0.03,-0.03,0.0,0.03,-0.015,-0.015,-0.02,-0.04,-0.045,-0.035,-0.045,-0.03
2.478,-0.03,-0.03,0.0,0.03,-0.015,-0.015,-0.02,-0.04,-0.045,-0.034,-0.045,-0.031
2.48,-0.03,-0.03,0.0,0.03,-0.015,-0.015,-0.02,-0.04,-0.045,-0.03,-0.045,-0.035
2.482,-0.03,-0.03,0.0,0.03,-0.015,-0.015,-0.02,-0.04,-0.045,-0.03,-0.041,-0.039
2.484,-0.031,-0.03,0.001,0.03,-0.016,-0.015,-0.02,-0.04,-0.045,-0.03,-0.04,-0.04
2.486,-0.028,-0.03,-0.002,0.029,-0.013,-0.016,-0.02,-0.04,-0.045,-0.03,-0.04,-0.04
2.488,-0.025,-0.03,-0.005,0.028,-0.01,-0.017,-0.019,-0.04,-0.045,-0.03,-0.04,-0.04
2.49,-0.025,-0.03,-0.005,0.028,-0.01,-0.017,-0.015,-0.04,-0.045,-0.03,-0.04,-0.04
2.492,-0.025,-0.03,-0.005,0.028,-0.01,-0.017,-0.015,-0.04,-0.045,-0.03,-0.04,-0.04
2.494,-0.025,-0.03,-0.005,0.028,-0.01,-0.017,-0.015,-0.043,-0.045,-0.03,-0.04,-0.04
2.496,-0.025,-0.03,-0.005,0.028,-0.01,-0.017,-0.015,-0.046,-0.045,-0.03,-0.04,-0.04
2.498,-0.024,-0.03,-0.006,0.028,-0.009,-0.017,-0.015,-0.045,-0.044,-0.03,-0.04,-0.04
2.5,-0.02,-0.03,-0.01,0.025,-0.005,-0.02,-0.015,-0.045,-0.04,-0.03,-0.04,-0.04
2.502,-0.02,-0.03,-0.01,0.025,-0.005,-0.02,-0.015,-0.045,-0.04,-0.03,-0.04,-0.04
2.504,-0.02,-0.03,-0.01,0.025,-0.005,-0.02,-0.015,-0.045,-0.04,-0.03,-0.04,-0.04
2.506,-0.02,-0.03,-0.01,0.025,-0.005,-0.02,-0.015,-0.045,-0.04,-0.03,-0.04,-0.04
2.508,-0.02,-0.03,-0.01,0.025,-0.005,-0.02,-0.015,-0.045,-0.04,-0.03,-0.039,-0.04
2.51,-0.02,-0.03,-0.01,0.025,-0.005,-0.02,-0.015,-0.045,-0.04,-0.03,-0.035,-0.04
2.512,-0.02,-0.03,-0.01,0.025,-0.005,-0.02,-0.015,-0.045,-0.04,-0.03,-0.035,-0.04
2.514,-0.023,-0.03,-0.007,0.027,-0.008,-0.018,-0.016,-0.045,-0.04,-0.03,-0.035,-0.04
2.516,-0.026,-0.03,-0.004,0.028,-0.011,-0.017,-0.013,-0.045,-0.04,-0.03,-0.035,-0.04
2.518,-0.025,-0.03,-0.005,0.028,-0.01,-0.017,-0.01,-0.045,-0.04,-0.03,-0.035,-0.04
2.52,-0.025,-0.03,-0.005,0.028,-0.01,-0.017,-0.01,-0.045,-0.04,-0.03,-0.035,-0.04
2.522,-0.025,-0.03,-0.005,0.028,-0.01,-0.017,-0.01,-0.049,-0.04,-0.03,-0.035,-0.04
2.524,-0.024,-0.03,-0.006,0.028,-0.009,-0.017,-0.01,-0.05,-0.041,-0.03,-0.035,-0.04
2.526,-0.027,-0.03,-0.003,0.029,-0.012,-0.016,-0.01,-0.05,-0.038,-0.03,-0.035,-0.04
2.528,-0.03,-0.029,0.0,0.029,-0.015,-0.015,-0.01,-0.05,-0.035,-0.03,-0.035,-0.04
2.53,-0.03,-0.03,0.0,0.03,-0.015,-0.015,-0.01,-0.05,-0.035,-0.03,-0.035,-0.04
2.532,-0.043,-0.043,0.0,0.043,-0.021,-0.021,-0.01,-0.05,-0.035,-0.029,-0.035,-0.04
2.534,-0.043,-0.043,0.0,0.043,-0.021,-0.021,-0.01,-0.05,-0.035,-0.035,-0.035,-0.04
2.536,-0.039,-0.039,0.0,0.039,-0.02,-0.02,-0.01,-0.05,-0.035,-0.043,-0.035,-0.04
2.538,-0.04,-0.04,0.0,0.04,-0.02,-0.02,-0.01,-0.05,-0.035,-0.044,-0.035,-0.039
2.54,-0.04,-0.04,0.0,0.04,-0.02,-0.02,-0.01,-0.05,-0.035,-0.04,-0.035,-0.035
2.542,-0.044,-0.04,0.004,0.042,-0.024,-0.017,-0.01,-0.05,-0.035,-0.04,-0.035,-0.035
2.544,-0.045,-0.04,0.005,0.042,-0.025,-0.017,-0.013,-0.05,-0.035,-0.04,-0.035,-0.035
2.546,-0.045,-0.04,0.005,0.042,-0.025,-0.017,-0.015,-0.05,-0.035,-0.04,-0.035,-0.035
2.548,-0.045,-0.04,0.005,0.042,-0.025,-0.017,-0.016,-0.049,-0.035,-0.04,-0.035,-0.035
2.55,-0.045,-0.04,0.005,0.042,-0.025,-0.017,-0.02,-0.045,-0.035,-0.04,-0.035,-0.035
2.552,-0.04,-0.036,0.005,0.038,-0.022,-0.016,-0.02,-0.045,-0.035,-0.04,-0.035,-0.035
2.554,-0.043,-0.035,0.008,0.038,-0.025,-0.013,-0.023,-0.045,-0.032,-0.041,-0.035,-0.035
2.556,-0.046,-0.035,0.011,0.04,-0.028,-0.012,-0.026,-0.045,-0.029,-0.038,-0.035,-0.035
2.558,-0.045,-0.035,0.01,0.04,-0.027,-0.012,-0.024,-0.045,-0.03,-0.035,-0.035,-0.035
2.56,-0.045,-0.035,0.01,0.04,-0.027,-0.012,-0.02,-0.045,-0.03,-0.035,-0.035,-0.035
2.562,-0.045,-0.035,0.01,0.04,-0.027,-0.012,-0.02,-0.045,-0.03,-0.035,-0.035,-0.035
2.564,-0.045,-0.035,0.01,0.04,-0.027,-0.012,-0.02,-0.045,-0.031,-0.035,-0.035,-0.036
2.566,-0.046,-0.035,0.01,0.041,-0.028,-0.012,-0.02,-0.045,-0.028,-0.035,-0.035,-0.033
2.568,-0.043,-0.034,0.009,0.039,-0.026,-0.012,-0.02,-0.045,-0.025,-0.035,-0.035,-0.03
2.57,-0.035,-0.03,0.005,0.032,-0.02,-0.012,-0.02,-0.045,-0.025,-0.035,-0.035,-0.03
2.572,-0.035,-0.03,0.005,0.032,-0.02,-0.012,-0.02,-0.045,-0.025,-0.035,-0.035,-0.03
2.574,-0.035,-0.03,0.005,0.032,-0.02,-0.012,-0.021,-0.045,-0.025,-0.032,-0.035,-0.03
2.576,-0.035,-0.03,0.005,0.032,-0.02,-0.012,-0.018,-0.045,-0.025,-0.029,-0.035,-0.03
2.578,-0.035,-0.03,0.005,0.032,-0.02,-0.012,-0.015,-0.045,-0.025,-0.03,-0.035,-0.03
2.58,-0.035,-0.03,0.005,0.032,-0.02,-0.012,-0.015,-0.045,-0.025,-0.03,-0.035,-0.03
2.582,-0.031,-0.03,0.001,0.03,-0.016,-0.014,-0.015,-0.045,-0.021,-0.03,-0.035,-0.03
2.584,-0.03,-0.03,0.0,0.03,-0.015,-0.015,-0.015,-0.045,-0.02,-0.03,-0.035,-0.03
2.586,-0.03,-0.03,0.0,0.03,-0.015,-0.015,-0.015,-0.045,-0.02,-0.03,-0.035,-0.03
2.588,-0.031,-0.031,0.0,0.031,-0.015,-0.015,-0.015,-0.045,-0.02,-0.03,-0.035,-0.03
2.59,-0.035,-0.035,0.0,0.035,-0.017,-0.017,-0.015,-0.045,-0.02,-0.03,-0.035,-0.03
2.592,-0.035,-0.035,0.0,0.035,-0.017,-0.017,-0.015,-0.045,-0.02,-0.03,-0.039,-0.03
2.594,-0.035,-0.035,0.001,0.035,-0.017,-0.017,-0.012,-0.045,-0.017,-0.03,-0.04,-0.03
2.596,-0.033,-0.035,-0.002,0.034,-0.015,-0.018,-0.009,-0.045,-0.014,-0.03,-0.04,-0.03
2.598,-0.03,-0.035,-0.005,0.033,-0.012,-0.02,-0.01,-0.045,-0.015,-0.03,-0.04,-0.03
2.6,-0.03,-0.035,-0.005,0.033,-0.012,-0.02,-0.01,-0.045,-0.015,-0.03,-0.04,-0.03
2.602,-0.03,-0.035,-0.005,0.033,-0.012,-0.02,-0.01,-0.045,-0.015,-0.03,-0.04,-0.03
2.604,-0.03,-0.035,-0.005,0.033,-0.012,-0.02,-0.01,-0.048,-0.015,-0.03,-0.04,-0.03
2.606,-0.03,-0.035,-0.005,0.033,-0.012,-0.02,-0.01,-0.051,-0.015,-0.03,-0.04,-0.029
2.608,-0.029,-0.035,-0.006,0.033,-0.011,-0.02,-0.01,-0.05,-0.016,-0.03,-0.04,-0.031
2.61,-0.025,-0.035,-0.01,0.03,-0.007,-0.022,-0.01,-0.05,-0.02,-0.03,-0.04,-0.04
2.612,-0.025,-0.035,-0.01,0.03,-0.007,-0.022,-0.01,-0.05,-0.02,-0.03,-0.04,-0.045
2.614,-0.025,-0.035,-0.01,0.03,-0.007,-0.022,-0.013,-0.05,-0.023,-0.03,-0.04,-0.045
2.616,-0.025,-0.035,-0.01,0.03,-0.007,-0.022,-0.016,-0.05,-0.025,-0.03,-0.04,-0.045
2.618,-0.025,-0.035,-0.01,0.03,-0.007,-0.022,-0.015,-0.05,-0.026,-0.03,-0.04,-0.045
2.62,-0.025,-0.035,-0.01,0.03,-0.007,-0.022,-0.015,-0.05,-0.03,-0.03,-0.04,-0.045
2.622,-0.025,-0.035,-0.01,0.03,-0.007,-0.022,-0.015,-0.05,-0.03,-0.03,-0.04,-0.045
2.624,-0.022,-0.035,-0.013,0.029,-0.004,-0.024,-0.015,-0.05,-0.033,-0.03,-0.04,-0.045
2.626,-0.019,-0.035,-0.016,0.028,-0.001,-0.025,-0.015,-0.05,-0.035,-0.03,-0.04,-0.045
2.628,-0.02,-0.035,-0.015,0.028,-0.002,-0.025,-0.015,-0.05,-0.036,-0.03,-0.04,-0.045
2.63,-0.02,-0.035,-0.015,0.028,-0.002,-0.025,-0.015,-0.05,-0.04,-0.03,-0.04,-0.045
2.632,-0.02,-0.035,-0.015,0.028,-0.002,-0.025,-0.015,-0.05,-0.041,-0.03,-0.04,-0.045
2.634,-0.02,-0.035,-0.015,0.028,-0.002,-0.025,-0.015,-0.05,-0.037,-0.03,-0.04,-0.045
2.636,-0.02,-0.035,-0.015,0.028,-0.002,-0.025,-0.015,-0.05,-0.034,-0.03,-0.04,-0.045
2.638,-0.02,-0.035,-0.015,0.028,-0.002,-0.025,-0.015,-0.05,-0.035,-0.03,-0.04,-0.045
2.64,-0.02,-0.035,-0.015,0.028,-0.002,-0.025,-0.015,-0.05,-0.035,-0.03,-0.04,-0.045
2.642,-0.02,-0.035,-0.015,0.028,-0.002,-0.025,-0.015,-0.05,-0.035,-0.03,-0.04,-0.045
2.644,-0.018,-0.033,-0.015,0.026,-0.001,-0.024,-0.015,-0.05,-0.036,-0.03,-0.041,-0.045
2.646,-0.028,-0.043,-0.015,0.036,-0.006,-0.029,-0.015,-0.05,-0.033,-0.03,-0.038,-0.045
2.648,-0.041,-0.056,-0.015,0.049,-0.013,-0.035,-0.015,-0.05,-0.03,-0.03,-0.035,-0.045
2.65,-0.035,-0.05,-0.015,0.043,-0.01,-0.032,-0.015,-0.05,-0.03,-0.03,-0.035,-0.045
2.652,-0.035,-0.05,-0.015,0.043,-0.01,-0.032,-0.015,-0.05,-0.03,-0.03,-0.035,-0.045
2.654,-0.035,-0.05,-0.015,0.043,-0.01,-0.032,-0.015,-0.05,-0.03,-0.03,-0.035,-0.045
2.656,-0.035,-0.05,-0.014,0.043,-0.011,-0.032,-0.015,-0.05,-0.03,-0.03,-0.035,-0.045
2.658,-0.034,-0.05,-0.016,0.043,-0.009,-0.033,-0.015,-0.049,-0.03,-0.03,-0.035,-0.045
2.66,-0.025,-0.05,-0.025,0.038,0.0,-0.037,-0.015,-0.045,-0.03,-0.03,-0.035,-0.045
2.662,-0.012,-0.046,-0.034,0.029,0.011,-0.04,-0.015,-0.045,-0.026,-0.03,-0.035,-0.045
2.664,-0.009,-0.045,-0.036,0.027,0.014,-0.04,-0.015,-0.045,-0.025,-0.03,-0.032,-0.045
2.666,-0.01,-0.045,-0.035,0.028,0.013,-0.04,-0.015,-0.045,-0.025,-0.03,-0.029,-0.045
2.668,-0.01,-0.045,-0.035,0.028,0.013,-0.04,-0.014,-0.045,-0.025,-0.03,-0.03,-0.046
2.67,-0.01,-0.045,-0.035,0.028,0.013,-0.04,-0.01,-0.045,-0.025,-0.03,-0.03,-0.05
2.672,-0.01,-0.045,-0.035,0.028,0.013,-0.04,-0.01,-0.045,-0.025,-0.03,-0.03,-0.05
2.674,-0.011,-0.046,-0.035,0.029,0.013,-0.04,-0.01,-0.046,-0.022,-0.03,-0.03,-0.05
2.676,-0.008,-0.043,-0.035,0.026,0.014,-0.039,-0.01,-0.043,-0.019,-0.03,-0.03,-0.05
2.678,-0.005,-0.04,-0.035,0.023,0.015,-0.037,-0.01,-0.04,-0.02,-0.03,-0.03,-0.05
2.68,-0.005,-0.04,-0.035,0.023,0.015,-0.037,-0.01,-0.04,-0.02,-0.03,-0.03,-0.05
2.682,-0.005,-0.04,-0.035,0.023,0.015,-0.037,-0.01,-0.04,-0.02,-0.03,-0.026,-0.05
2.684,-0.005,-0.04,-0.035,0.023,0.015,-0.037,-0.01,-0.04,-0.02,-0.03,-0.025,-0.05
2.686,-0.005,-0.04,-0.035,0.023,0.015,-0.037,-0.01,-0.04,-0.02,-0.03,-0.025,-0.05
2.688,-0.004,-0.039,-0.035,0.022,0.015,-0.037,-0.01,-0.04,-0.021,-0.03,-0.025,-0.05
2.69,0.0,-0.035,-0.035,0.018,0.018,-0.035,-0.01,-0.04,-0.025,-0.03,-0.025,-0.05
2.692,0.0,-0.035,-0.035,0.018,0.018,-0.035,-0.01,-0.04,-0.025,-0.03,-0.025,-0.05
2.694,0.0,-0.035,-0.035,0.018,0.018,-0.035,-0.01,-0.037,-0.025,-0.03,-0.025,-0.05
2.696,0.0,-0.035,-0.035,0.018,0.018,-0.035,-0.01,-0.034,-0.025,-0.03,-0.025,-0.05
2.698,0.0,-0.035,-0.035,0.018,0.018,-0.035,-0.01,-0.035,-0.025,-0.03,-0.024,-0.05
2.7,0.0,-0.035,-0.035,0.018,0.018,-0.035,-0.01,-0.035,-0.025,-0.03,-0.025,-0.05
2.702,0.0,-0.035,-0.035,0.018,0.018,-0.035,-0.01,-0.035,-0.025,-0.03,-0.037,-0.05
2.704,-0.003,-0.038,-0.035,0.021,0.016,-0.036,-0.01,-0.035,-0.025,-0.033,-0.044,-0.05
2.706,-0.005,-0.04,-0.035,0.023,0.015,-0.037,-0.01,-0.035,-0.025,-0.036,-0.045,-0.05
2.708,-0.006,-0.041,-0.035,0.024,0.015,-0.037,-0.01,-0.035,-0.025,-0.035,-0.045,-0.05
2.71,-0.01,-0.045,-0.035,0.028,0.013,-0.04,-0.01,-0.035,-0.025,-0.035,-0.045,-0.05
2.712,-0.01,-0.045,-0.035,0.028,0.013,-0.04,-0.01,-0.035,-0.025,-0.035,-0.045,-0.05
2.714,-0.013,-0.048,-0.035,0.031,0.011,-0.041,-0.01,-0.032,-0.025,-0.035,-0.045,-0.05
2.716,-0.016,-0.051,-0.035,0.034,0.01,-0.043,-0.01,-0.029,-0.025,-0.035,-0.045,-0.05
2.718,-0.015,-0.049,-0.034,0.032,0.01,-0.041,-0.01,-0.03,-0.025,-0.035,-0.045,-0.05
2.72,-0.015,-0.045,-0.03,0.03,0.008,-0.037,-0.01,-0.03,-0.025,-0.035,-0.045,-0.05
2.722,-0.015,-0.045,-0.03,0.03,0.008,-0.037,-0.01,-0.03,-0.025,-0.035,-0.045,-0.05
2.724,-0.015,-0.045,-0.03,0.03,0.008,-0.037,-0.007,-0.03,-0.025,-0.035,-0.045,-0.053
2.726,-0.015,-0.045,-0.03,0.03,0.008,-0.037,-0.004,-0.03,-0.025,-0.035,-0.045,-0.056
2.728,-0.015,-0.045,-0.03,0.03,0.008,-0.037,-0.005,-0.03,-0.025,-0.035,-0.045,-0.055
2.73,-0.015,-0.045,-0.03,0.03,0.008,-0.037,-0.005,-0.03,-0.025,-0.035,-0.045,-0.055
2.732,-0.019,-0.045,-0.026,0.033,0.004,-0.035,-0.005,-0.03,-0.025,-0.039,-0.045,-0.055
2.734,-0.02,-0.045,-0.025,0.033,0.003,-0.035,-0.005,-0.03,-0.025,-0.04,-0.045,-0.055
2.736,-0.02,-0.045,-0.025,0.033,0.003,-0.035,-0.005,-0.03,-0.025,-0.04,-0.045,-0.055
2.738,-0.02,-0.045,-0.025,0.033,0.003,-0.035,-0.005,-0.03,-0.025,-0.04,-0.045,-0.055
2.74,-0.02,-0.045,-0.025,0.033,0.003,-0.035,-0.005,-0.03,-0.025,-0.04,-0.045,-0.055
2.742,-0.02,-0.045,-0.025,0.033,0.003,-0.035,-0.005,-0.03,-0.025,-0.04,-0.045,-0.055
2.744,-0.02,-0.046,-0.026,0.033,0.003,-0.036,-0.005,-0.03,-0.025,-0.04,-0.045,-0.055
2.746,-0.02,-0.043,-0.023,0.032,0.002,-0.033,-0.005,-0.03,-0.025,-0.04,-0.045,-0.055
2.748,-0.02,-0.04,-0.02,0.03,0.0,-0.03,-0.005,-0.03,-0.025,-0.04,-0.045,-0.055
2.75,-0.02,-0.04,-0.02,0.03,0.0,-0.03,-0.005,-0.03,-0.025,-0.04,-0.045,-0.055
2.752,-0.02,-0.04,-0.02,0.03,0.0,-0.03,-0.005,-0.03,-0.025,-0.04,-0.045,-0.055
2.754,-0.02,-0.04,-0.02,0.03,0.0,-0.03,-0.005,-0.03,-0.025,-0.04,-0.045,-0.055
2.756,-0.02,-0.04,-0.02,0.03,0.0,-0.03,-0.005,-0.03,-0.025,-0.04,-0.045,-0.055
2.758,-0.021,-0.04,-0.019,0.03,-0.001,-0.03,-0.005,-0.03,-0.025,-0.039,-0.044,-0.055
2.76,-0.025,-0.04,-0.015,0.033,-0.005,-0.027,-0.005,-0.03,-0.025,-0.035,-0.04,-0.055
2.762,-0.025,-0.04,-0.015,0.033,-0.005,-0.027,-0.005,-0.03,-0.025,-0.035,-0.04,-0.055
2.764,-0.025,-0.04,-0.015,0.033,-0.005,-0.027,-0.005,-0.03,-0.025,-0.035,-0.04,-0.055
2.766,-0.025,-0.04,-0.015,0.033,-0.005,-0.027,-0.005,-0.03,-0.025,-0.035,-0.04,-0.055
2.768,-0.025,-0.04,-0.015,0.033,-0.005,-0.027,-0.005,-0.031,-0.025,-0.035,-0.04,-0.055
2.77,-0.025,-0.04,-0.015,0.033,-0.005,-0.027,-0.005,-0.035,-0.025,-0.035,-0.04,-0.055
2.772,-0.026,-0.04,-0.015,0.034,-0.006,-0.027,-0.005,-0.036,-0.025,-0.035,-0.04,-0.055
2.774,-0.019,-0.037,-0.018,0.028,-0.001,-0.027,-0.005,-0.032,-0.025,-0.035,-0.04,-0.055
2.776,-0.012,-0.034,-0.022,0.024,0.005,-0.028,-0.005,-0.03,-0.025,-0.035,-0.04,-0.055
2.778,-0.009,-0.035,-0.026,0.023,0.009,-0.03,-0.004,-0.03,-0.025,-0.035,-0.04,-0.055
2.78,-0.005,-0.035,-0.03,0.02,0.013,-0.032,0.0,-0.03,-0.025,-0.035,-0.04,-0.055
2.782,0.0,-0.035,-0.035,0.018,0.018,-0.035,0.0,-0.03,-0.025,-0.035,-0.04,-0.055
2.784,-0.003,-0.035,-0.032,0.019,0.015,-0.033,0.0,-0.03,-0.025,-0.035,-0.041,-0.055
2.786,-0.006,-0.035,-0.029,0.02,0.012,-0.032,0.0,-0.03,-0.025,-0.035,-0.038,-0.055
2.788,-0.005,-0.035,-0.03,0.02,0.013,-0.032,0.0,-0.03,-0.025,-0.035,-0.035,-0.055
2.79,-0.005,-0.035,-0.03,0.02,0.013,-0.032,0.0,-0.03,-0.025,-0.035,-0.035,-0.055
2.792,-0.009,-0.035,-0.026,0.023,0.009,-0.03,0.0,-0.026,-0.025,-0.035,-0.035,-0.055
2.794,-0.01,-0.035,-0.025,0.023,0.008,-0.03,0.0,-0.025,-0.025,-0.035,-0.035,-0.055
2.796,-0.01,-0.035,-0.025,0.023,0.008,-0.03,0.0,-0.025,-0.025,-0.035,-0.035,-0.055
2.798,-0.01,-0.035,-0.025,0.023,0.008,-0.03,0.0,-0.025,-0.026,-0.035,-0.035,-0.055
2.8,-0.01,-0.035,-0.025,0.023,0.008,-0.03,0.0,-0.025,-0.03,-0.035,-0.035,-0.055
2.802,-0.01,-0.031,-0.021,0.02,0.005,-0.026,0.0,-0.025,-0.03,-0.035,-0.035,-0.055
2.804,-0.01,-0.03,-0.02,0.02,0.005,-0.025,0.003,-0.025,-0.03,-0.035,-0.035,-0.055
2.806,-0.01,-0.03,-0.02,0.02,0.005,-0.025,0.006,-0.025,-0.03,-0.035,-0.035,-0.055
2.808,-0.01,-0.03,-0.02,0.02,0.005,-0.025,0.005,-0.024,-0.03,-0.035,-0.035,-0.055
2.81,-0.01,-0.03,-0.02,0.02,0.005,-0.025,0.005,-0.02,-0.03,-0.035,-0.035,-0.055
2.812,-0.014,-0.03,-0.016,0.022,0.001,-0.023,0.005,-0.02,-0.03,-0.035,-0.035,-0.055
2.814,-0.016,-0.03,-0.014,0.023,-0.001,-0.022,0.005,-0.02,-0.03,-0.035,-0.038,-0.055
2.816,-0.014,-0.03,-0.016,0.023,0.001,-0.022,0.005,-0.02,-0.03,-0.035,-0.041,-0.055
2.818,-0.016,-0.03,-0.014,0.023,-0.001,-0.022,0.005,-0.02,-0.03,-0.035,-0.04,-0.055
2.82,-0.02,-0.03,-0.01,0.025,-0.005,-0.02,0.005,-0.02,-0.03,-0.035,-0.04,-0.055
2.822,-0.02,-0.03,-0.01,0.025,-0.005,-0.02,0.005,-0.02,-0.03,-0.035,-0.044,-0.055
2.824,-0.02,-0.03,-0.01,0.025,-0.005,-0.02,0.005,-0.02,-0.029,-0.035,-0.046,-0.055
2.826,-0.02,-0.03,-0.01,0.025,-0.005,-0.02,0.005,-0.019,-0.032,-0.035,-0.044,-0.055
2.828,-0.021,-0.03,-0.009,0.025,-0.006,-0.02,0.005,-0.022,-0.035,-0.035,-0.046,-0.055
2.83,-0.025,-0.03,-0.005,0.028,-0.01,-0.017,0.005,-0.03,-0.035,-0.035,-0.05,-0.055
2.832,-0.025,-0.03,-0.005,0.028,-0.01,-0.017,0.005,-0.026,-0.035,-0.035,-0.05,-0.055
2.834,-0.025,-0.03,-0.005,0.028,-0.01,-0.017,0.005,-0.024,-0.035,-0.035,-0.05,-0.052
2.836,-0.025,-0.03,-0.005,0.028,-0.01,-0.017,0.005,-0.025,-0.035,-0.035,-0.05,-0.049
2.838,-0.024,-0.03,-0.006,0.028,-0.009,-0.017,0.005,-0.025,-0.035,-0.035,-0.05,-0.05
2.84,-0.02,-0.03,-0.01,0.025,-0.005,-0.02,0.005,-0.025,-0.035,-0.035,-0.05,-0.05
2.842,-0.02,-0.03,-0.01,0.025,-0.005,-0.02,0.005,-0.025,-0.035,-0.035,-0.05,-0.05
2.844,-0.021,-0.03,-0.009,0.025,-0.006,-0.02,0.005,-0.025,-0.035,-0.035,-0.05,-0.05
2.846,-0.018,-0.03,-0.012,0.024,-0.003,-0.021,0.005,-0.025,-0.035,-0.035,-0.05,-0.05
2.848,-0.014,-0.03,-0.016,0.023,0.001,-0.022,0.005,-0.025,-0.035,-0.035,-0.05,-0.05
2.85,-0.015,-0.03,-0.015,0.023,0.0,-0.022,0.005,-0.025,-0.035,-0.035,-0.05,-0.05
2.852,-0.016,-0.031,-0.014,0.024,-0.001,-0.022,0.005,-0.025,-0.035,-0.035,-0.05,-0.05
2.854,-0.007,-0.027,-0.02,0.018,0.006,-0.023,0.005,-0.025,-0.038,-0.035,-0.05,-0.05
2.856,-0.01,-0.04,-0.03,0.025,0.011,-0.035,0.005,-0.025,-0.041,-0.035,-0.05,-0.05
2.858,-0.022,-0.056,-0.035,0.039,0.007,-0.046,0.004,-0.024,-0.04,-0.035,-0.05,-0.05
2.86,-0.02,-0.05,-0.03,0.035,0.005,-0.04,0.0,-0.02,-0.04,-0.035,-0.05,-0.05
2.862,-0.02,-0.049,-0.03,0.035,0.005,-0.039,0.0,-0.02,-0.04,-0.035,-0.05,-0.05
2.864,-0.02,-0.051,-0.031,0.035,0.005,-0.041,0.0,-0.02,-0.04,-0.035,-0.05,-0.05
2.866,-0.02,-0.048,-0.028,0.034,0.004,-0.038,0.0,-0.02,-0.04,-0.035,-0.05,-0.05
2.868,-0.02,-0.045,-0.025,0.033,0.003,-0.035,0.0,-0.02,-0.04,-0.036,-0.05,-0.05
2.87,-0.02,-0.045,-0.025,0.033,0.003,-0.035,0.0,-0.02,-0.04,-0.04,-0.05,-0.05
2.872,-0.02,-0.045,-0.025,0.033,0.003,-0.035,0.0,-0.02,-0.04,-0.04,-0.05,-0.05
2.874,-0.02,-0.046,-0.026,0.033,0.003,-0.036,0.001,-0.02,-0.04,-0.04,-0.05,-0.05
2.876,-0.02,-0.043,-0.023,0.032,0.002,-0.033,-0.002,-0.02,-0.04,-0.04,-0.05,-0.05
2.878,-0.02,-0.04,-0.02,0.03,0.0,-0.03,-0.005,-0.02,-0.04,-0.04,-0.05,-0.05
2.88,-0.02,-0.04,-0.02,0.03,0.0,-0.03,-0.005,-0.02,-0.04,-0.04,-0.05,-0.05
2.882,-0.02,-0.04,-0.02,0.03,0.0,-0.03,-0.005,-0.02,-0.04,-0.04,-0.05,-0.05
2.884,-0.02,-0.04,-0.02,0.03,0.0,-0.03,-0.005,-0.019,-0.04,-0.04,-0.053,-0.05
2.886,-0.02,-0.038,-0.018,0.029,-0.001,-0.028,-0.005,-0.022,-0.04,-0.04,-0.056,-0.05
2.888,-0.02,-0.035,-0.015,0.028,-0.002,-0.025,-0.005,-0.025,-0.04,-0.04,-0.055,-0.049
2.89,-0.02,-0.035,-0.015,0.028,-0.002,-0.025,-0.005,-0.025,-0.04,-0.04,-0.055,-0.045
2.892,-0.02,-0.035,-0.015,0.028,-0.002,-0.025,-0.005,-0.025,-0.04,-0.04,-0.055,-0.045
2.894,-0.02,-0.032,-0.012,0.026,-0.004,-0.022,-0.008,-0.025,-0.04,-0.039,-0.055,-0.045
2.896,-0.02,-0.03,-0.01,0.025,-0.005,-0.02,-0.011,-0.025,-0.04,-0.042,-0.055,-0.045
2.898,-0.02,-0.03,-0.01,0.025,-0.005,-0.02,-0.01,-0.025,-0.04,-0.045,-0.055,-0.045
2.9,-0.02,-0.03,-0.01,0.025,-0.005,-0.02,-0.01,-0.025,-0.04,-0.045,-0.055,-0.045
2.902,-0.02,-0.03,-0.01,0.025,-0.005,-0.02,-0.01,-0.029,-0.04,-0.045,-0.055,-0.045
2.904,-0.02,-0.027,-0.007,0.024,-0.006,-0.017,-0.01,-0.03,-0.04,-0.045,-0.055,-0.046
2.906,-0.02,-0.024,-0.004,0.023,-0.007,-0.014,-0.01,-0.03,-0.04,-0.045,-0.055,-0.043
2.908,-0.02,-0.025,-0.005,0.023,-0.007,-0.015,-0.01,-0.03,-0.039,-0.045,-0.055,-0.04
2.91,-0.02,-0.025,-0.005,0.023,-0.007,-0.015,-0.01,-0.03,-0.035,-0.045,-0.055,-0.04
2.912,-0.021,-0.025,-0.005,0.024,-0.008,-0.015,-0.01,-0.03,-0.035,-0.045,-0.055,-0.04
2.914,-0.014,-0.022,-0.008,0.018,-0.003,-0.015,-0.013,-0.029,-0.035,-0.045,-0.055,-0.04
2.916,-0.008,-0.018,-0.01,0.013,0.001,-0.014,-0.016,-0.032,-0.035,-0.045,-0.055,-0.04
2.918,-0.012,-0.022,-0.011,0.017,0.0,-0.017,-0.015,-0.035,-0.034,-0.045,-0.055,-0.04
2.92,-0.02,-0.035,-0.015,0.028,-0.002,-0.025,-0.015,-0.035,-0.03,-0.045,-0.055,-0.04
2.922,-0.025,-0.04,-0.015,0.033,-0.005,-0.027,-0.019,-0.035,-0.03,-0.045,-0.055,-0.04
2.924,-0.021,-0.04,-0.019,0.03,-0.001,-0.029,-0.021,-0.035,-0.03,-0.042,-0.055,-0.037
2.926,-0.023,-0.042,-0.019,0.032,-0.002,-0.03,-0.019,-0.035,-0.03,-0.039,-0.055,-0.034
2.928,-0.022,-0.046,-0.023,0.034,0.001,-0.034,-0.021,-0.035,-0.029,-0.04,-0.055,-0.035
